type,name,time_units,begin_time,frequency,count,units
signal,"Noraxon Ultium-RT BRACHIORAD.","s",0.00000,2000,51080,"uV"

time,value
0.00000,-55.83761233
0.00050,-43.62983602
0.00100,-35.99997583
0.00150,-34.7791982
0.00200,-31.11686531
0.00250,-22.26622748
0.00300,-14.9415617
0.00350,-12.80520084
0.00400,-7.616895912
0.00450,7.642824473
0.00500,28.7012386
0.00550,43.35057017
0.00600,46.40251425
0.00650,40.2986261
0.00700,31.14279387
0.00750,21.98696163
0.00800,14.96749026
0.00850,10.69476855
0.00900,7.032435657
0.00950,3.064908357
0.01000,-0.5974245352
0.01050,-3.038979797
0.01100,-3.038979797
0.01150,-0.5974245352
0.01200,3.675297173
0.01250,7.337630065
0.01300,6.422046842
0.01350,0.6233530956
0.01400,-5.175340651
0.01450,-6.396118282
0.01500,-2.428590981
0.01550,1.233741911
0.01600,0.3181586879
0.01650,-4.564951835
0.01700,-7.311701505
0.01750,-3.649368612
0.01800,2.454519542
0.01850,5.201269211
0.01900,2.75971395
0.01950,-1.207813351
0.02000,-5.480535058
0.02050,-10.05845117
0.02100,-14.9415617
0.02150,-17.38311696
0.02200,-17.99350577
0.02250,-19.21428341
0.02300,-20.74025544
0.02350,-20.43506104
0.02400,-18.909089
0.02450,-17.38311696
0.02500,-13.41558966
0.02550,-3.95456302
0.02600,5.811658027
0.02650,6.72724125
0.02700,-0.9026189429
0.02750,-5.480535058
0.02800,-0.2922301275
0.02850,8.558407696
0.02900,13.44151822
0.02950,15.57787907
0.03000,18.62982315
0.03050,19.24021197
0.03100,14.05190703
0.03150,8.558407696
0.03200,10.99996296
0.03250,18.62982315
0.03300,19.85060078
0.03350,10.38957414
0.03400,-2.428590981
0.03450,-12.50000644
0.03500,-21.96103307
0.03550,-32.64283734
0.03600,-38.7467255
0.03650,-34.16880938
0.03700,-24.40258834
0.03750,-21.96103307
0.03800,-28.37011564
0.03850,-32.33764294
0.03900,-24.09739393
0.03950,-7.92209032
0.04000,6.422046842
0.04050,16.4934623
0.04100,25.03890571
0.04150,32.3635715
0.04200,33.88954354
0.04250,28.7012386
0.04300,23.51293367
0.04350,23.51293367
0.04400,28.09084979
0.04450,33.27915472
0.04500,36.3310988
0.04550,35.41551557
0.04600,29.61682183
0.04650,20.4609896
0.04700,13.13632381
0.04750,11.30515737
0.04800,13.13632381
0.04850,12.22074059
0.04900,3.98049158
0.04950,-9.142867951
0.05000,-19.21428341
0.05050,-20.74025544
0.05100,-16.16233933
0.05150,-15.2467561
0.05200,-20.43506104
0.05250,-26.23375478
0.05300,-27.75972682
0.05350,-28.06492123
0.05400,-29.89608767
0.05450,-28.37011564
0.05500,-17.68831137
0.05550,-4.870146243
0.05600,-1.513007758
0.05650,-8.227284728
0.05700,-13.11039525
0.05750,-9.142867951
0.05800,-2.428590981
0.05850,-0.9026189429
0.05900,-3.344174205
0.05950,-4.870146243
0.06000,-6.701312689
0.06050,-13.11039525
0.06100,-21.96103307
0.06150,-25.01297715
0.06200,-17.68831137
0.06250,-3.649368612
0.06300,9.168796511
0.06350,16.4934623
0.06400,18.32462874
0.06450,18.01943433
0.06500,20.15579519
0.06550,27.48046097
0.06600,36.02590439
0.06650,39.68823728
0.06700,36.02590439
0.06750,27.78565538
0.06800,17.71423993
0.06850,4.896074803
0.06900,-8.532479135
0.06950,-17.68831137
0.07000,-19.51947781
0.07050,-17.07792255
0.07100,-16.16233933
0.07150,-16.16233933
0.07200,-12.50000644
0.07250,-3.344174205
0.07300,6.72724125
0.07350,13.74671263
0.07400,17.40904552
0.07450,19.54540637
0.07500,20.4609896
0.07550,19.24021197
0.07600,16.4934623
0.07650,12.8311294
0.07700,9.473990919
0.07750,7.032435657
0.07800,7.94801888
0.07850,11.30515737
0.07900,12.22074059
0.07950,4.896074803
0.08000,-9.448062359
0.08050,-21.65583867
0.08100,-21.65583867
0.08150,-10.36364558
0.08200,0.3181586879
0.08250,3.064908357
0.08300,-0.9026189429
0.08350,-4.870146243
0.08400,-5.175340651
0.08450,-5.785729466
0.08500,-10.05845117
0.08550,-15.55195051
0.08600,-16.16233933
0.08650,-10.9740344
0.08700,-5.175340651
0.08750,-4.564951835
0.08800,-7.311701505
0.08850,-5.480535058
0.08900,1.538936319
0.08950,5.506463619
0.09000,-0.9026189429
0.09050,-13.72078407
0.09100,-20.43506104
0.09150,-19.82467222
0.09200,-20.43506104
0.09250,-25.62336597
0.09300,-27.75972682
0.09350,-21.65583867
0.09400,-13.41558966
0.09450,-10.9740344
0.09500,-8.837673543
0.09550,3.370102765
0.09600,26.56487775
0.09650,48.84406951
0.09700,59.22067937
0.09750,57.99990174
0.09800,50.37004155
0.09850,42.12979254
0.09900,36.94148761
0.09950,34.49993235
0.10000,29.61682183
0.10050,18.01943433
0.10100,5.506463619
0.10150,-1.513007758
0.10200,-5.175340651
0.10250,-15.85714492
0.10300,-35.69478142
0.10350,-55.53241792
0.10400,-64.68825015
0.10450,-64.38305574
0.10500,-60.11033404
0.10550,-54.31164029
0.10600,-46.37658569
0.10650,-37.83114227
0.10700,-32.03244853
0.10750,-25.62336597
0.10800,-11.58442321
0.10850,12.22074059
0.10900,40.2986261
0.10950,61.66223464
0.11000,69.90248364
0.11050,64.71417871
0.11100,49.75965274
0.11150,30.83759946
0.11200,12.8311294
0.11250,0.3181586879
0.11300,-4.870146243
0.11350,-5.480535058
0.11400,-6.701312689
0.11450,-11.58442321
0.11500,-17.68831137
0.11550,-20.12986663
0.11600,-17.07792255
0.11650,-11.58442321
0.11700,-5.480535058
0.11750,-1.513007758
0.11800,-2.123396574
0.11850,-7.006507097
0.11900,-9.142867951
0.11950,0.01296428019
0.12000,17.71423993
0.12050,31.75318268
0.12100,32.3635715
0.12150,22.59735045
0.12200,13.13632381
0.12250,8.558407696
0.12300,6.72724125
0.12350,4.590880396
0.12400,2.149325134
0.12450,-0.9026189429
0.12500,-6.396118282
0.12550,-13.11039525
0.12600,-17.68831137
0.12650,-17.68831137
0.12700,-15.2467561
0.12750,-13.41558966
0.12800,-13.41558966
0.12850,-11.2792288
0.12900,-4.870146243
0.12950,3.675297173
0.13000,9.473990919
0.13050,10.08437973
0.13100,9.779185327
0.13150,12.22074059
0.13200,15.88307348
0.13250,17.40904552
0.13300,16.7986567
0.13350,15.27268467
0.13400,12.22074059
0.13450,7.642824473
0.13500,5.811658027
0.13550,9.779185327
0.13600,14.05190703
0.13650,12.22074059
0.13700,4.896074803
0.13750,0.3181586879
0.13800,0.01296428019
0.13850,0.9285475033
0.13900,0.9285475033
0.13950,0.01296428019
0.14000,-4.259757428
0.14050,-13.72078407
0.14100,-22.8766163
0.14150,-23.48700511
0.14200,-15.85714492
0.14250,-10.9740344
0.14300,-15.55195051
0.14350,-23.79219952
0.14400,-25.62336597
0.14450,-19.51947781
0.14500,-13.41558966
0.14550,-13.72078407
0.14600,-17.68831137
0.14650,-20.12986663
0.14700,-20.43506104
0.14750,-24.40258834
0.14800,-34.47400379
0.14850,-43.62983602
0.14900,-42.40905839
0.14950,-30.50647649
0.15000,-17.07792255
0.15050,-9.142867951
0.15100,-3.649368612
0.15150,5.506463619
0.15200,19.24021197
0.15250,33.27915472
0.15300,46.70770866
0.15350,59.83106819
0.15400,69.29209483
0.15450,71.42845568
0.15500,68.0713172
0.15550,62.88301227
0.15600,54.33756885
0.15650,40.6038205
0.15700,26.56487775
0.15750,20.4609896
0.15800,22.59735045
0.15850,23.51293367
0.15900,18.62982315
0.15950,11.91554618
0.16000,9.168796511
0.16050,7.94801888
0.16100,4.590880396
0.16150,0.6233530956
0.16200,-1.207813351
0.16250,-1.818202166
0.16300,-3.344174205
0.16350,-4.564951835
0.16400,-3.95456302
0.16450,-3.95456302
0.16500,-4.564951835
0.16550,-1.818202166
0.16600,5.201269211
0.16650,8.253213288
0.16700,-3.038979797
0.16750,-27.14933801
0.16800,-49.12333536
0.16850,-58.584362
0.16900,-57.36358437
0.16950,-52.48047384
0.17000,-46.6817801
0.17050,-39.66230872
0.17100,-32.94803175
0.17150,-26.8441436
0.17200,-17.68831137
0.17250,-2.733785389
0.17300,16.7986567
0.17350,36.94148761
0.17400,53.72718004
0.17450,61.96742904
0.17500,58.30509615
0.17550,45.48693103
0.17600,32.3635715
0.17650,25.64929453
0.17700,21.68176723
0.17750,15.88307348
0.17800,9.473990919
0.17850,6.422046842
0.17900,7.94801888
0.17950,10.69476855
0.18000,14.35710144
0.18050,19.54540637
0.18100,24.7337113
0.18150,27.17526657
0.18200,26.87007216
0.18250,22.90254486
0.18300,14.35710144
0.18350,3.675297173
0.18400,-2.428590981
0.18450,-1.207813351
0.18500,1.538936319
0.18550,0.01296428019
0.18600,-3.649368612
0.18650,-2.733785389
0.18700,0.6233530956
0.18750,1.233741911
0.18800,0.01296428019
0.18850,2.75971395
0.18900,10.69476855
0.18950,13.44151822
0.19000,5.811658027
0.19050,-5.175340651
0.19100,-11.2792288
0.19150,-12.50000644
0.19200,-12.50000644
0.19250,-10.36364558
0.19300,-3.344174205
0.19350,4.896074803
0.19400,8.558407696
0.19450,7.642824473
0.19500,8.863602104
0.19550,14.05190703
0.19600,17.40904552
0.19650,14.66229585
0.19700,9.168796511
0.19750,6.72724125
0.19800,5.811658027
0.19850,0.6233530956
0.19900,-8.837673543
0.19950,-17.38311696
0.20000,-21.65583867
0.20050,-25.62336597
0.20100,-30.50647649
0.20150,-31.42205971
0.20200,-25.92856037
0.20250,-18.909089
0.20300,-18.909089
0.20350,-26.23375478
0.20400,-33.25322616
0.20450,-34.47400379
0.20500,-29.28569886
0.20550,-20.74025544
0.20600,-11.88961762
0.20650,-6.701312689
0.20700,-4.870146243
0.20750,-3.344174205
0.20800,0.01296428019
0.20850,5.811658027
0.20900,14.05190703
0.20950,25.34410012
0.21000,40.2986261
0.21050,54.94795767
0.21100,62.88301227
0.21150,61.66223464
0.21200,52.81159681
0.21250,39.99343169
0.21300,27.48046097
0.21350,18.32462874
0.21400,13.74671263
0.21450,11.61035177
0.21500,11.30515737
0.21550,13.74671263
0.21600,16.7986567
0.21650,14.66229585
0.21700,5.811658027
0.21750,-4.259757428
0.21800,-11.2792288
0.21850,-15.55195051
0.21900,-17.38311696
0.21950,-13.72078407
0.22000,-6.090923874
0.22050,-3.649368612
0.22100,-10.9740344
0.22150,-17.99350577
0.22200,-12.50000644
0.22250,1.844130726
0.22300,13.44151822
0.22350,16.7986567
0.22400,17.40904552
0.22450,18.01943433
0.22500,11.91554618
0.22550,-4.259757428
0.22600,-24.09739393
0.22650,-35.69478142
0.22700,-36.30517024
0.22750,-30.20128208
0.22800,-25.62336597
0.22850,-28.06492123
0.22900,-37.52594787
0.22950,-47.59736332
0.23000,-49.73372418
0.23050,-39.66230872
0.23100,-21.65583867
0.23150,-3.038979797
0.23200,9.473990919
0.23250,12.8311294
0.23300,7.642824473
0.23350,-0.2922301275
0.23400,-1.818202166
0.23450,7.337630065
0.23500,20.4609896
0.23550,24.4285169
0.23600,14.96749026
0.23650,0.6233530956
0.23700,-7.311701505
0.23750,-7.92209032
0.23800,-8.837673543
0.23850,-14.33117288
0.23900,-18.29870018
0.23950,-15.2467561
0.24000,-9.753256766
0.24050,-7.92209032
0.24100,-7.311701505
0.24150,0.01296428019
0.24200,12.8311294
0.24250,20.4609896
0.24300,17.10385111
0.24350,8.558407696
0.24400,2.149325134
0.24450,-3.649368612
0.24500,-12.19481203
0.24550,-19.21428341
0.24600,-18.60389459
0.24650,-11.2792288
0.24700,-2.733785389
0.24750,2.454519542
0.24800,3.675297173
0.24850,0.3181586879
0.24900,-7.311701505
0.24950,-14.63636729
0.25000,-15.85714492
0.25050,-10.9740344
0.25100,-3.95456302
0.25150,3.675297173
0.25200,12.525935
0.25250,19.24021197
0.25300,18.32462874
0.25350,10.38957414
0.25400,4.896074803
0.25450,7.642824473
0.25500,14.05190703
0.25550,15.57787907
0.25600,9.779185327
0.25650,0.01296428019
0.25700,-10.66883999
0.25750,-21.04544985
0.25800,-29.28569886
0.25850,-30.20128208
0.25900,-21.04544985
0.25950,-4.870146243
0.26000,8.863602104
0.26050,11.61035177
0.26100,3.98049158
0.26150,-5.785729466
0.26200,-10.9740344
0.26250,-11.88961762
0.26300,-11.2792288
0.26350,-9.448062359
0.26400,-5.175340651
0.26450,-2.428590981
0.26500,-4.870146243
0.26550,-8.227284728
0.26600,-6.090923874
0.26650,2.454519542
0.26700,12.22074059
0.26750,21.98696163
0.26800,35.11032117
0.26850,50.06484714
0.26900,57.99990174
0.26950,53.72718004
0.27000,41.82459814
0.27050,28.7012386
0.27100,15.27268467
0.27150,0.3181586879
0.27200,-13.41558966
0.27250,-21.04544985
0.27300,-22.26622748
0.27350,-22.26622748
0.27400,-25.31817156
0.27450,-31.72725412
0.27500,-37.22075346
0.27550,-36.30517024
0.27600,-28.67531004
0.27650,-18.29870018
0.27700,-10.05845117
0.27750,-2.428590981
0.27800,8.863602104
0.27850,24.7337113
0.27900,37.55187643
0.27950,38.16226524
0.28000,26.87007216
0.28050,11.91554618
0.28100,2.75971395
0.28150,2.454519542
0.28200,6.72724125
0.28250,9.473990919
0.28300,8.863602104
0.28350,8.558407696
0.28400,11.61035177
0.28450,15.27268467
0.28500,16.7986567
0.28550,15.88307348
0.28600,13.44151822
0.28650,10.08437973
0.28700,5.811658027
0.28750,2.75971395
0.28800,1.538936319
0.28850,0.6233530956
0.28900,-0.9026189429
0.28950,-1.513007758
0.29000,-0.5974245352
0.29050,-0.2922301275
0.29100,-2.428590981
0.29150,-4.564951835
0.29200,-3.038979797
0.29250,-0.2922301275
0.29300,0.9285475033
0.29350,0.01296428019
0.29400,-1.207813351
0.29450,-2.123396574
0.29500,-2.428590981
0.29550,-0.5974245352
0.29600,2.454519542
0.29650,4.896074803
0.29700,3.064908357
0.29750,-2.428590981
0.29800,-8.532479135
0.29850,-11.58442321
0.29900,-9.448062359
0.29950,-3.649368612
0.30000,2.149325134
0.30050,3.98049158
0.30100,0.01296428019
0.30150,-7.616895912
0.30200,-12.80520084
0.30250,-13.41558966
0.30300,-10.66883999
0.30350,-9.753256766
0.30400,-13.41558966
0.30450,-19.82467222
0.30500,-21.65583867
0.30550,-16.46753374
0.30600,-7.92209032
0.30650,-3.95456302
0.30700,-5.785729466
0.30750,-7.92209032
0.30800,-5.785729466
0.30850,-2.733785389
0.30900,-2.733785389
0.30950,-4.870146243
0.31000,-3.95456302
0.31050,1.538936319
0.31100,10.08437973
0.31150,17.10385111
0.31200,20.766184
0.31250,19.85060078
0.31300,16.18826789
0.31350,11.61035177
0.31400,7.94801888
0.31450,3.98049158
0.31500,0.01296428019
0.31550,-3.344174205
0.31600,-3.344174205
0.31650,-1.818202166
0.31700,-1.207813351
0.31750,-1.818202166
0.31800,-3.344174205
0.31850,-6.396118282
0.31900,-13.72078407
0.31950,-24.70778274
0.32000,-33.25322616
0.32050,-34.16880938
0.32100,-28.98050445
0.32150,-26.23375478
0.32200,-35.69478142
0.32250,-58.27916759
0.32300,-86.05185869
0.32350,-107.7206616
0.32400,-113.214161
0.32450,-101.6167735
0.32500,-78.4219985
0.32550,-52.48047384
0.32600,-29.28569886
0.32650,-11.88961762
0.32700,-0.2922301275
0.32750,7.94801888
0.32800,20.766184
0.32850,45.48693103
0.32900,77.83753824
0.32950,102.2530909
0.33000,108.356979
0.33050,100.7271188
0.33100,90.35050896
0.33150,77.22714943
0.33200,53.42198563
0.33250,22.90254486
0.33300,0.9285475033
0.33350,-3.649368612
0.33400,0.3181586879
0.33450,2.454519542
0.33500,3.98049158
0.33550,7.94801888
0.33600,10.38957414
0.33650,7.032435657
0.33700,4.285685988
0.33750,10.69476855
0.33800,22.90254486
0.33850,30.22721064
0.33900,30.53240505
0.33950,29.00643301
0.34000,28.09084979
0.34050,24.12332249
0.34100,18.93501756
0.34150,19.24021197
0.34200,25.34410012
0.34250,28.7012386
0.34300,25.95448893
0.34350,21.07137841
0.34400,18.62982315
0.34450,15.88307348
0.34500,8.863602104
0.34550,1.233741911
0.34600,-1.513007758
0.34650,0.3181586879
0.34700,3.370102765
0.34750,4.590880396
0.34800,3.675297173
0.34850,1.233741911
0.34900,-2.123396574
0.34950,-4.870146243
0.35000,-6.396118282
0.35050,-7.616895912
0.35100,-7.92209032
0.35150,-4.259757428
0.35200,2.75971395
0.35250,9.473990919
0.35300,10.08437973
0.35350,4.590880396
0.35400,-3.038979797
0.35450,-9.448062359
0.35500,-12.50000644
0.35550,-11.88961762
0.35600,-8.837673543
0.35650,-6.701312689
0.35700,-7.92209032
0.35750,-11.2792288
0.35800,-13.41558966
0.35850,-13.72078407
0.35900,-14.33117288
0.35950,-17.68831137
0.36000,-22.57142189
0.36050,-25.31817156
0.36100,-25.31817156
0.36150,-22.26622748
0.36200,-16.16233933
0.36250,-7.311701505
0.36300,0.9285475033
0.36350,5.811658027
0.36400,7.032435657
0.36450,8.253213288
0.36500,11.30515737
0.36550,15.27268467
0.36600,15.88307348
0.36650,12.8311294
0.36700,10.38957414
0.36750,10.69476855
0.36800,9.779185327
0.36850,1.233741911
0.36900,-15.85714492
0.36950,-33.86361497
0.37000,-43.32464161
0.37050,-42.7142528
0.37100,-38.13633668
0.37150,-34.16880938
0.37200,-29.59089327
0.37250,-23.48700511
0.37300,-20.74025544
0.37350,-25.92856037
0.37400,-33.25322616
0.37450,-33.55842057
0.37500,-23.48700511
0.37550,-12.19481203
0.37600,-7.006507097
0.37650,-8.532479135
0.37700,-12.80520084
0.37750,-17.99350577
0.37800,-23.79219952
0.37850,-25.31817156
0.37900,-16.77272814
0.37950,1.844130726
0.38000,25.03890571
0.38050,46.70770866
0.38100,62.88301227
0.38150,70.81806687
0.38200,70.51287246
0.38250,65.32456753
0.38300,58.91548497
0.38350,51.28562477
0.38400,41.82459814
0.38450,32.3635715
0.38500,25.03890571
0.38550,20.4609896
0.38600,18.32462874
0.38650,19.85060078
0.38700,21.07137841
0.38750,12.525935
0.38800,-7.616895912
0.38850,-23.18181071
0.38900,-15.85714492
0.38950,10.69476855
0.39000,34.49993235
0.39050,40.6038205
0.39100,35.41551557
0.39150,29.31162742
0.39200,21.07137841
0.39250,7.94801888
0.39300,-1.207813351
0.39350,0.9285475033
0.39400,10.38957414
0.39450,14.66229585
0.39500,10.99996296
0.39550,6.72724125
0.39600,5.811658027
0.39650,4.896074803
0.39700,1.538936319
0.39750,-1.818202166
0.39800,-4.564951835
0.39850,-7.92209032
0.39900,-12.50000644
0.39950,-14.9415617
0.40000,-13.11039525
0.40050,-8.532479135
0.40100,-3.038979797
0.40150,2.454519542
0.40200,7.337630065
0.40250,9.473990919
0.40300,9.473990919
0.40350,6.72724125
0.40400,1.844130726
0.40450,-2.428590981
0.40500,-2.428590981
0.40550,0.9285475033
0.40600,-0.5974245352
0.40650,-13.72078407
0.40700,-31.42205971
0.40750,-40.27269754
0.40800,-35.38958701
0.40850,-25.62336597
0.40900,-20.43506104
0.40950,-17.99350577
0.41000,-12.19481203
0.41050,-2.733785389
0.41100,4.896074803
0.41150,9.779185327
0.41200,15.57787907
0.41250,25.03890571
0.41300,33.88954354
0.41350,36.3310988
0.41400,30.22721064
0.41450,18.93501756
0.41500,7.337630065
0.41550,-0.9026189429
0.41600,-4.564951835
0.41650,-3.344174205
0.41700,0.3181586879
0.41750,3.064908357
0.41800,2.149325134
0.41850,-0.9026189429
0.41900,-3.344174205
0.41950,-2.428590981
0.42000,0.01296428019
0.42050,1.233741911
0.42100,1.538936319
0.42150,1.538936319
0.42200,1.844130726
0.42250,1.233741911
0.42300,-1.207813351
0.42350,-4.259757428
0.42400,-5.785729466
0.42450,-4.259757428
0.42500,-2.428590981
0.42550,-3.95456302
0.42600,-9.448062359
0.42650,-13.72078407
0.42700,-11.2792288
0.42750,-5.480535058
0.42800,-4.259757428
0.42850,-10.36364558
0.42900,-17.68831137
0.42950,-20.12986663
0.43000,-21.35064426
0.43050,-26.53894919
0.43100,-33.55842057
0.43150,-36.61036464
0.43200,-35.38958701
0.43250,-36.61036464
0.43300,-40.88308635
0.43350,-40.57789194
0.43400,-31.72725412
0.43450,-18.29870018
0.43500,-5.480535058
0.43550,7.032435657
0.43600,20.4609896
0.43650,29.31162742
0.43700,28.09084979
0.43750,18.93501756
0.43800,8.863602104
0.43850,0.9285475033
0.43900,-6.090923874
0.43950,-15.85714492
0.44000,-28.37011564
0.44050,-42.40905839
0.44100,-52.78566825
0.44150,-52.78566825
0.44200,-43.93503043
0.44250,-36.61036464
0.44300,-37.83114227
0.44350,-42.10386398
0.44400,-39.05191991
0.44450,-28.98050445
0.44500,-20.43506104
0.44550,-14.02597847
0.44600,-3.649368612
0.44650,11.61035177
0.44700,25.03890571
0.44750,32.97396031
0.44800,40.90901491
0.44850,53.72718004
0.44900,67.15573397
0.44950,72.0388445
0.45000,65.01937312
0.45050,50.06484714
0.45100,36.02590439
0.45150,30.83759946
0.45200,35.72070998
0.45250,42.43498695
0.45300,41.21420932
0.45350,31.14279387
0.45400,19.54540637
0.45450,13.13632381
0.45500,10.69476855
0.45550,7.94801888
0.45600,5.201269211
0.45650,3.064908357
0.45700,2.149325134
0.45750,1.233741911
0.45800,0.3181586879
0.45850,0.01296428019
0.45900,2.149325134
0.45950,8.253213288
0.46000,14.96749026
0.46050,17.40904552
0.46100,14.05190703
0.46150,8.863602104
0.46200,7.642824473
0.46250,9.779185327
0.46300,10.38957414
0.46350,8.558407696
0.46400,5.811658027
0.46450,2.454519542
0.46500,-3.038979797
0.46550,-10.66883999
0.46600,-16.46753374
0.46650,-19.51947781
0.46700,-22.8766163
0.46750,-25.92856037
0.46800,-22.8766163
0.46850,-11.88961762
0.46900,0.01296428019
0.46950,3.370102765
0.47000,-1.513007758
0.47050,-7.92209032
0.47100,-8.532479135
0.47150,-3.95456302
0.47200,1.233741911
0.47250,4.285685988
0.47300,5.811658027
0.47350,5.811658027
0.47400,5.201269211
0.47450,3.675297173
0.47500,1.538936319
0.47550,-1.513007758
0.47600,-5.480535058
0.47650,-7.616895912
0.47700,-6.090923874
0.47750,-2.733785389
0.47800,-2.123396574
0.47850,-5.480535058
0.47900,-9.142867951
0.47950,-9.753256766
0.48000,-8.532479135
0.48050,-9.448062359
0.48100,-10.9740344
0.48150,-10.36364558
0.48200,-7.311701505
0.48250,-5.480535058
0.48300,-6.701312689
0.48350,-8.227284728
0.48400,-7.311701505
0.48450,-4.564951835
0.48500,-2.123396574
0.48550,-0.5974245352
0.48600,-0.5974245352
0.48650,-2.733785389
0.48700,-7.616895912
0.48750,-14.02597847
0.48800,-18.29870018
0.48850,-19.51947781
0.48900,-18.909089
0.48950,-19.21428341
0.49000,-19.82467222
0.49050,-17.99350577
0.49100,-14.02597847
0.49150,-12.19481203
0.49200,-15.55195051
0.49250,-17.99350577
0.49300,-10.9740344
0.49350,4.590880396
0.49400,18.93501756
0.49450,22.29215604
0.49500,16.7986567
0.49550,11.30515737
0.49600,9.168796511
0.49650,6.116852434
0.49700,-1.207813351
0.49750,-8.837673543
0.49800,-11.2792288
0.49850,-8.227284728
0.49900,-6.396118282
0.49950,-12.50000644
0.50000,-26.53894919
0.50050,-42.7142528
0.50100,-55.22722351
0.50150,-61.94150048
0.50200,-64.68825015
0.50250,-67.12980541
0.50300,-75.06486001
0.50350,-90.62977481
0.50400,-104.6687176
0.50450,-102.8375511
0.50500,-78.11680409
0.50550,-42.7142528
0.50600,-14.33117288
0.50650,2.149325134
0.50700,16.4934623
0.50750,34.80512676
0.50800,51.59081918
0.50850,61.66223464
0.50900,70.20767805
0.50950,81.80506554
0.51000,89.12973133
0.51050,80.88948232
0.51100,60.74665141
0.51150,42.43498695
0.51200,33.88954354
0.51250,28.7012386
0.51300,21.07137841
0.51350,12.525935
0.51400,6.422046842
0.51450,1.844130726
0.51500,-1.818202166
0.51550,0.01296428019
0.51600,8.863602104
0.51650,19.54540637
0.51700,23.81812808
0.51750,21.68176723
0.51800,16.4934623
0.51850,9.168796511
0.51900,2.149325134
0.51950,0.6233530956
0.52000,8.253213288
0.52050,18.93501756
0.52100,24.7337113
0.52150,23.51293367
0.52200,20.15579519
0.52250,17.40904552
0.52300,15.88307348
0.52350,15.57787907
0.52400,17.40904552
0.52450,20.4609896
0.52500,20.4609896
0.52550,15.27268467
0.52600,5.506463619
0.52650,-5.480535058
0.52700,-12.19481203
0.52750,-10.05845117
0.52800,-1.207813351
0.52850,5.201269211
0.52900,7.032435657
0.52950,7.032435657
0.53000,6.72724125
0.53050,2.75971395
0.53100,-4.259757428
0.53150,-6.396118282
0.53200,0.3181586879
0.53250,6.116852434
0.53300,3.370102765
0.53350,-2.123396574
0.53400,0.01296428019
0.53450,7.94801888
0.53500,11.91554618
0.53550,7.337630065
0.53600,0.3181586879
0.53650,-5.480535058
0.53700,-10.36364558
0.53750,-13.72078407
0.53800,-12.19481203
0.53850,-6.396118282
0.53900,-0.9026189429
0.53950,2.149325134
0.54000,3.675297173
0.54050,2.454519542
0.54100,-3.649368612
0.54150,-10.36364558
0.54200,-10.36364558
0.54250,-3.038979797
0.54300,3.370102765
0.54350,3.064908357
0.54400,-2.733785389
0.54450,-8.837673543
0.54500,-12.19481203
0.54550,-12.50000644
0.54600,-10.66883999
0.54650,-9.448062359
0.54700,-10.36364558
0.54750,-10.9740344
0.54800,-7.006507097
0.54850,1.538936319
0.54900,10.08437973
0.54950,14.35710144
0.55000,13.13632381
0.55050,10.38957414
0.55100,9.168796511
0.55150,8.863602104
0.55200,4.896074803
0.55250,-4.259757428
0.55300,-14.63636729
0.55350,-18.29870018
0.55400,-15.2467561
0.55450,-12.50000644
0.55500,-14.02597847
0.55550,-14.9415617
0.55600,-11.2792288
0.55650,-5.480535058
0.55700,-3.038979797
0.55750,-2.123396574
0.55800,1.233741911
0.55850,7.642824473
0.55900,11.30515737
0.55950,11.30515737
0.56000,10.69476855
0.56050,9.779185327
0.56100,5.811658027
0.56150,-1.207813351
0.56200,-10.05845117
0.56250,-17.68831137
0.56300,-25.31817156
0.56350,-34.7791982
0.56400,-46.07139128
0.56450,-57.05838996
0.56500,-62.85708371
0.56550,-59.49994522
0.56600,-47.59736332
0.56650,-34.7791982
0.56700,-25.62336597
0.56750,-17.38311696
0.56800,-5.175340651
0.56850,9.473990919
0.56900,23.51293367
0.56950,35.72070998
0.57000,47.01290307
0.57050,54.33756885
0.57100,54.64276326
0.57150,48.84406951
0.57200,41.21420932
0.57250,33.27915472
0.57300,24.4285169
0.57350,17.40904552
0.57400,17.40904552
0.57450,21.98696163
0.57500,24.12332249
0.57550,21.68176723
0.57600,20.4609896
0.57650,21.37657282
0.57700,18.32462874
0.57750,8.863602104
0.57800,0.3181586879
0.57850,-2.733785389
0.57900,-3.95456302
0.57950,-8.532479135
0.58000,-14.02597847
0.58050,-14.33117288
0.58100,-10.05845117
0.58150,-6.701312689
0.58200,-3.344174205
0.58250,4.285685988
0.58300,13.13632381
0.58350,15.88307348
0.58400,12.8311294
0.58450,10.99996296
0.58500,10.99996296
0.58550,3.98049158
0.58600,-9.753256766
0.58650,-17.99350577
0.58700,-13.11039525
0.58750,-6.701312689
0.58800,-14.02597847
0.58850,-28.37011564
0.58900,-32.94803175
0.58950,-24.70778274
0.59000,-18.60389459
0.59050,-20.74025544
0.59100,-18.60389459
0.59150,-0.9026189429
0.59200,21.68176723
0.59250,32.6687659
0.59300,28.3960442
0.59350,20.766184
0.59400,17.10385111
0.59450,15.88307348
0.59500,15.57787907
0.59550,18.93501756
0.59600,25.34410012
0.59650,28.09084979
0.59700,21.98696163
0.59750,9.168796511
0.59800,-3.649368612
0.59850,-11.58442321
0.59900,-12.19481203
0.59950,-8.532479135
0.60000,-5.785729466
0.60050,-7.92209032
0.60100,-12.80520084
0.60150,-16.46753374
0.60200,-17.38311696
0.60250,-16.46753374
0.60300,-11.2792288
0.60350,1.844130726
0.60400,20.4609896
0.60450,35.72070998
0.60500,41.51940373
0.60550,39.99343169
0.60600,34.19473794
0.60650,24.4285169
0.60700,13.13632381
0.60750,5.506463619
0.60800,0.9285475033
0.60850,-6.396118282
0.60900,-20.43506104
0.60950,-34.47400379
0.61000,-40.27269754
0.61050,-38.44153109
0.61100,-36.91555905
0.61150,-37.83114227
0.61200,-36.91555905
0.61250,-31.42205971
0.61300,-25.92856037
0.61350,-24.09739393
0.61400,-21.35064426
0.61450,-10.66883999
0.61500,8.863602104
0.61550,30.22721064
0.61600,44.87654221
0.61650,49.14926392
0.61700,45.18173662
0.61750,38.46745965
0.61800,30.83759946
0.61850,21.98696163
0.61900,10.38957414
0.61950,0.01296428019
0.62000,-4.870146243
0.62050,-5.785729466
0.62100,-7.92209032
0.62150,-12.80520084
0.62200,-16.77272814
0.62250,-16.77272814
0.62300,-16.46753374
0.62350,-17.99350577
0.62400,-17.99350577
0.62450,-13.41558966
0.62500,-11.58442321
0.62550,-19.21428341
0.62600,-29.59089327
0.62650,-29.59089327
0.62700,-18.909089
0.62750,-11.58442321
0.62800,-14.33117288
0.62850,-16.46753374
0.62900,-6.701312689
0.62950,10.99996296
0.63000,26.25968334
0.63050,36.02590439
0.63100,41.51940373
0.63150,40.2986261
0.63200,29.61682183
0.63250,15.27268467
0.63300,7.642824473
0.63350,7.642824473
0.63400,8.253213288
0.63450,4.896074803
0.63500,0.3181586879
0.63550,-1.818202166
0.63600,-1.818202166
0.63650,-1.818202166
0.63700,-3.95456302
0.63750,-8.532479135
0.63800,-11.88961762
0.63850,-11.2792288
0.63900,-9.142867951
0.63950,-13.11039525
0.64000,-23.79219952
0.64050,-31.42205971
0.64100,-29.89608767
0.64150,-25.01297715
0.64200,-25.62336597
0.64250,-30.8116709
0.64300,-31.42205971
0.64350,-26.8441436
0.64400,-25.01297715
0.64450,-27.75972682
0.64500,-27.45453241
0.64550,-18.29870018
0.64600,-6.701312689
0.64650,-2.123396574
0.64700,-3.344174205
0.64750,-1.207813351
0.64800,8.863602104
0.64850,21.37657282
0.64900,27.48046097
0.64950,27.78565538
0.65000,28.09084979
0.65050,32.3635715
0.65100,36.3310988
0.65150,36.3310988
0.65200,33.27915472
0.65250,28.3960442
0.65300,21.68176723
0.65350,11.91554618
0.65400,3.98049158
0.65450,3.370102765
0.65500,8.558407696
0.65550,12.525935
0.65600,9.779185327
0.65650,0.9285475033
0.65700,-10.9740344
0.65750,-22.8766163
0.65800,-31.11686531
0.65850,-31.72725412
0.65900,-25.31817156
0.65950,-17.99350577
0.66000,-13.72078407
0.66050,-10.05845117
0.66100,-4.564951835
0.66150,1.233741911
0.66200,4.896074803
0.66250,7.94801888
0.66300,13.74671263
0.66350,22.59735045
0.66400,32.6687659
0.66450,39.07784847
0.66500,36.94148761
0.66550,23.81812808
0.66600,5.201269211
0.66650,-8.837673543
0.66700,-12.80520084
0.66750,-10.9740344
0.66800,-10.36364558
0.66850,-12.80520084
0.66900,-13.41558966
0.66950,-10.66883999
0.67000,-7.311701505
0.67050,-3.95456302
0.67100,0.3181586879
0.67150,7.337630065
0.67200,17.40904552
0.67250,28.09084979
0.67300,35.11032117
0.67350,33.58434913
0.67400,22.90254486
0.67450,8.863602104
0.67500,-1.513007758
0.67550,-6.090923874
0.67600,-5.785729466
0.67650,-4.870146243
0.67700,-8.532479135
0.67750,-17.99350577
0.67800,-28.37011564
0.67850,-30.8116709
0.67900,-25.62336597
0.67950,-22.26622748
0.68000,-25.92856037
0.68050,-30.20128208
0.68100,-25.31817156
0.68150,-12.50000644
0.68200,-1.818202166
0.68250,3.370102765
0.68300,9.473990919
0.68350,21.07137841
0.68400,32.3635715
0.68450,33.58434913
0.68500,21.98696163
0.68550,5.506463619
0.68600,-4.870146243
0.68650,-7.311701505
0.68700,-8.837673543
0.68750,-17.38311696
0.68800,-30.8116709
0.68850,-40.57789194
0.68900,-41.79866957
0.68950,-36.91555905
0.69000,-29.28569886
0.69050,-17.68831137
0.69100,-2.428590981
0.69150,9.168796511
0.69200,13.44151822
0.69250,15.27268467
0.69300,25.34410012
0.69350,41.51940373
0.69400,51.89601359
0.69450,48.5388751
0.69500,36.6362932
0.69550,26.56487775
0.69600,19.85060078
0.69650,13.13632381
0.69700,6.116852434
0.69750,1.538936319
0.69800,0.6233530956
0.69850,0.3181586879
0.69900,-0.5974245352
0.69950,-1.513007758
0.70000,-2.428590981
0.70050,-5.785729466
0.70100,-12.80520084
0.70150,-20.43506104
0.70200,-25.01297715
0.70250,-25.01297715
0.70300,-22.57142189
0.70350,-20.43506104
0.70400,-20.43506104
0.70450,-22.8766163
0.70500,-25.92856037
0.70550,-25.01297715
0.70600,-17.68831137
0.70650,-5.480535058
0.70700,6.72724125
0.70750,17.10385111
0.70800,25.64929453
0.70850,33.88954354
0.70900,40.6038205
0.70950,42.43498695
0.71000,36.3310988
0.71050,24.12332249
0.71100,12.22074059
0.71150,6.422046842
0.71200,4.285685988
0.71250,0.9285475033
0.71300,-3.95456302
0.71350,-6.701312689
0.71400,-4.259757428
0.71450,0.9285475033
0.71500,7.642824473
0.71550,16.7986567
0.71600,27.17526657
0.71650,32.3635715
0.71700,29.31162742
0.71750,21.07137841
0.71800,13.74671263
0.71850,7.337630065
0.71900,0.01296428019
0.71950,-9.448062359
0.72000,-18.29870018
0.72050,-24.40258834
0.72100,-26.53894919
0.72150,-24.09739393
0.72200,-18.60389459
0.72250,-14.63636729
0.72300,-14.33117288
0.72350,-14.63636729
0.72400,-10.9740344
0.72450,-2.733785389
0.72500,5.811658027
0.72550,11.30515737
0.72600,13.44151822
0.72650,15.27268467
0.72700,19.85060078
0.72750,27.17526657
0.72800,31.14279387
0.72850,28.3960442
0.72900,22.29215604
0.72950,19.54540637
0.73000,18.32462874
0.73050,10.99996296
0.73100,-3.95456302
0.73150,-17.38311696
0.73200,-21.35064426
0.73250,-20.43506104
0.73300,-22.57142189
0.73350,-26.53894919
0.73400,-24.70778274
0.73450,-17.99350577
0.73500,-14.63636729
0.73550,-16.77272814
0.73600,-17.38311696
0.73650,-8.837673543
0.73700,6.72724125
0.73750,22.29215604
0.73800,32.3635715
0.73850,36.6362932
0.73900,36.02590439
0.73950,31.14279387
0.74000,24.4285169
0.74050,20.15579519
0.74100,19.54540637
0.74150,19.54540637
0.74200,14.66229585
0.74250,3.98049158
0.74300,-7.92209032
0.74350,-17.38311696
0.74400,-23.79219952
0.74450,-28.67531004
0.74500,-31.42205971
0.74550,-29.28569886
0.74600,-23.48700511
0.74650,-16.77272814
0.74700,-10.36364558
0.74750,-3.649368612
0.74800,2.149325134
0.74850,5.506463619
0.74900,7.337630065
0.74950,12.22074059
0.75000,21.37657282
0.75050,29.00643301
0.75100,29.61682183
0.75150,24.12332249
0.75200,16.7986567
0.75250,8.863602104
0.75300,0.3181586879
0.75350,-5.785729466
0.75400,-5.175340651
0.75450,0.3181586879
0.75500,4.590880396
0.75550,5.506463619
0.75600,5.506463619
0.75650,6.422046842
0.75700,6.72724125
0.75750,7.94801888
0.75800,12.525935
0.75850,18.62982315
0.75900,18.32462874
0.75950,9.779185327
0.76000,0.01296428019
0.76050,-3.038979797
0.76100,1.233741911
0.76150,7.642824473
0.76200,10.69476855
0.76250,8.253213288
0.76300,0.3181586879
0.76350,-8.837673543
0.76400,-13.11039525
0.76450,-10.05845117
0.76500,-3.95456302
0.76550,-0.9026189429
0.76600,-1.818202166
0.76650,-5.480535058
0.76700,-12.19481203
0.76750,-19.82467222
0.76800,-23.48700511
0.76850,-21.96103307
0.76900,-20.74025544
0.76950,-21.65583867
0.77000,-19.82467222
0.77050,-11.88961762
0.77100,-5.480535058
0.77150,-8.837673543
0.77200,-16.46753374
0.77250,-15.85714492
0.77300,-5.480535058
0.77350,2.75971395
0.77400,3.370102765
0.77450,1.538936319
0.77500,2.454519542
0.77550,3.370102765
0.77600,-0.5974245352
0.77650,-6.701312689
0.77700,-6.090923874
0.77750,5.506463619
0.77800,23.51293367
0.77850,38.16226524
0.77900,41.82459814
0.77950,34.19473794
0.78000,20.15579519
0.78050,5.201269211
0.78100,-9.142867951
0.78150,-23.79219952
0.78200,-35.99997583
0.78250,-40.27269754
0.78300,-35.38958701
0.78350,-26.53894919
0.78400,-20.43506104
0.78450,-18.29870018
0.78500,-17.68831137
0.78550,-14.33117288
0.78600,-8.227284728
0.78650,-2.428590981
0.78700,1.233741911
0.78750,5.506463619
0.78800,12.525935
0.78850,21.07137841
0.78900,25.95448893
0.78950,24.12332249
0.79000,18.62982315
0.79050,15.57787907
0.79100,16.7986567
0.79150,20.766184
0.79200,23.51293367
0.79250,23.51293367
0.79300,20.766184
0.79350,16.4934623
0.79400,12.22074059
0.79450,8.253213288
0.79500,3.98049158
0.79550,-0.2922301275
0.79600,-3.344174205
0.79650,-3.649368612
0.79700,-1.513007758
0.79750,1.538936319
0.79800,4.285685988
0.79850,4.590880396
0.79900,1.233741911
0.79950,-3.95456302
0.80000,-7.92209032
0.80050,-8.837673543
0.80100,-7.616895912
0.80150,-6.090923874
0.80200,-3.649368612
0.80250,-0.5974245352
0.80300,0.9285475033
0.80350,0.6233530956
0.80400,-2.428590981
0.80450,-8.227284728
0.80500,-14.02597847
0.80550,-14.9415617
0.80600,-9.448062359
0.80650,-4.564951835
0.80700,-6.701312689
0.80750,-13.11039525
0.80800,-14.02597847
0.80850,-7.006507097
0.80900,-0.5974245352
0.80950,-1.818202166
0.81000,-6.090923874
0.81050,-6.396118282
0.81100,-4.870146243
0.81150,-7.311701505
0.81200,-11.2792288
0.81250,-8.837673543
0.81300,0.3181586879
0.81350,8.863602104
0.81400,12.525935
0.81450,12.8311294
0.81500,13.44151822
0.81550,16.18826789
0.81600,22.29215604
0.81650,29.00643301
0.81700,27.48046097
0.81750,10.69476855
0.81800,-14.02597847
0.81850,-32.64283734
0.81900,-37.22075346
0.81950,-34.47400379
0.82000,-31.72725412
0.82050,-28.37011564
0.82100,-21.04544985
0.82150,-11.58442321
0.82200,-3.344174205
0.82250,4.896074803
0.82300,17.10385111
0.82350,32.05837709
0.82400,44.5713478
0.82450,49.45445833
0.82500,46.70770866
0.82550,39.07784847
0.82600,29.00643301
0.82650,18.93501756
0.82700,11.30515737
0.82750,7.337630065
0.82800,7.642824473
0.82850,10.38957414
0.82900,12.525935
0.82950,12.22074059
0.83000,9.473990919
0.83050,7.337630065
0.83100,5.506463619
0.83150,3.370102765
0.83200,0.3181586879
0.83250,-2.428590981
0.83300,-5.785729466
0.83350,-12.19481203
0.83400,-22.8766163
0.83450,-33.86361497
0.83500,-39.35711431
0.83550,-37.52594787
0.83600,-31.11686531
0.83650,-27.75972682
0.83700,-32.03244853
0.83750,-41.18828076
0.83800,-46.98697451
0.83850,-42.7142528
0.83900,-29.59089327
0.83950,-14.9415617
0.84000,-3.95456302
0.84050,1.844130726
0.84100,3.98049158
0.84150,3.98049158
0.84200,4.590880396
0.84250,7.032435657
0.84300,10.08437973
0.84350,11.61035177
0.84400,12.8311294
0.84450,15.27268467
0.84500,19.85060078
0.84550,24.7337113
0.84600,27.17526657
0.84650,26.87007216
0.84700,23.81812808
0.84750,21.37657282
0.84800,22.59735045
0.84850,25.64929453
0.84900,22.59735045
0.84950,10.99996296
0.85000,-1.207813351
0.85050,-5.175340651
0.85100,-0.2922301275
0.85150,5.506463619
0.85200,8.253213288
0.85250,8.558407696
0.85300,8.253213288
0.85350,5.201269211
0.85400,-0.2922301275
0.85450,-3.038979797
0.85500,1.233741911
0.85550,9.473990919
0.85600,15.27268467
0.85650,15.88307348
0.85700,13.13632381
0.85750,10.08437973
0.85800,7.642824473
0.85850,7.337630065
0.85900,9.168796511
0.85950,10.38957414
0.86000,9.473990919
0.86050,6.422046842
0.86100,5.201269211
0.86150,5.811658027
0.86200,4.590880396
0.86250,0.3181586879
0.86300,-3.344174205
0.86350,-2.123396574
0.86400,2.149325134
0.86450,5.201269211
0.86500,4.590880396
0.86550,3.370102765
0.86600,3.370102765
0.86650,3.675297173
0.86700,1.844130726
0.86750,-1.818202166
0.86800,-4.259757428
0.86850,-3.344174205
0.86900,-0.9026189429
0.86950,0.3181586879
0.87000,0.01296428019
0.87050,-1.513007758
0.87100,-2.428590981
0.87150,-3.344174205
0.87200,-5.480535058
0.87250,-10.36364558
0.87300,-14.02597847
0.87350,-12.80520084
0.87400,-7.92209032
0.87450,-5.480535058
0.87500,-11.58442321
0.87550,-25.92856037
0.87600,-41.79866957
0.87650,-52.78566825
0.87700,-54.92202911
0.87750,-46.07139128
0.87800,-28.98050445
0.87850,-11.2792288
0.87900,-2.428590981
0.87950,-3.649368612
0.88000,-7.616895912
0.88050,-8.227284728
0.88100,-7.006507097
0.88150,-8.532479135
0.88200,-11.58442321
0.88250,-11.58442321
0.88300,-8.532479135
0.88350,-6.701312689
0.88400,-7.006507097
0.88450,-3.95456302
0.88500,3.98049158
0.88550,10.99996296
0.88600,10.99996296
0.88650,10.38957414
0.88700,18.32462874
0.88750,32.3635715
0.88800,39.99343169
0.88850,34.49993235
0.88900,21.68176723
0.88950,10.38957414
0.89000,2.454519542
0.89050,-3.344174205
0.89100,-4.870146243
0.89150,0.3181586879
0.89200,7.94801888
0.89250,12.8311294
0.89300,12.8311294
0.89350,11.30515737
0.89400,9.779185327
0.89450,7.94801888
0.89500,5.201269211
0.89550,2.454519542
0.89600,1.538936319
0.89650,2.149325134
0.89700,2.454519542
0.89750,0.3181586879
0.89800,-4.259757428
0.89850,-6.701312689
0.89900,-3.038979797
0.89950,3.370102765
0.90000,5.506463619
0.90050,1.538936319
0.90100,-3.649368612
0.90150,-6.396118282
0.90200,-7.616895912
0.90250,-7.311701505
0.90300,-2.733785389
0.90350,4.590880396
0.90400,7.032435657
0.90450,0.9285475033
0.90500,-4.564951835
0.90550,-2.733785389
0.90600,1.233741911
0.90650,-4.564951835
0.90700,-21.96103307
0.90750,-39.05191991
0.90800,-46.37658569
0.90850,-48.20775214
0.90900,-51.25969621
0.90950,-54.00644588
0.91000,-50.03891858
0.91050,-41.18828076
0.91100,-33.55842057
0.91150,-26.8441436
0.91200,-14.02597847
0.91250,5.811658027
0.91300,25.03890571
0.91350,35.11032117
0.91400,36.6362932
0.91450,35.11032117
0.91500,32.97396031
0.91550,29.61682183
0.91600,25.95448893
0.91650,22.29215604
0.91700,14.35710144
0.91750,0.01296428019
0.91800,-14.02597847
0.91850,-15.55195051
0.91900,-3.649368612
0.91950,10.08437973
0.92000,16.4934623
0.92050,16.18826789
0.92100,14.96749026
0.92150,12.8311294
0.92200,8.863602104
0.92250,5.811658027
0.92300,7.642824473
0.92350,12.22074059
0.92400,14.66229585
0.92450,14.05190703
0.92500,13.13632381
0.92550,12.8311294
0.92600,10.69476855
0.92650,7.337630065
0.92700,7.337630065
0.92750,10.38957414
0.92800,9.168796511
0.92850,-1.207813351
0.92900,-18.29870018
0.92950,-31.11686531
0.93000,-34.16880938
0.93050,-30.20128208
0.93100,-24.70778274
0.93150,-18.909089
0.93200,-11.2792288
0.93250,-2.428590981
0.93300,3.370102765
0.93350,2.149325134
0.93400,-4.870146243
0.93450,-12.19481203
0.93500,-12.80520084
0.93550,-7.006507097
0.93600,-0.2922301275
0.93650,2.75971395
0.93700,3.064908357
0.93750,2.454519542
0.93800,1.233741911
0.93850,-2.733785389
0.93900,-7.006507097
0.93950,-3.649368612
0.94000,10.38957414
0.94050,28.09084979
0.94100,36.6362932
0.94150,34.19473794
0.94200,28.3960442
0.94250,25.03890571
0.94300,21.68176723
0.94350,14.35710144
0.94400,6.116852434
0.94450,1.844130726
0.94500,1.844130726
0.94550,3.675297173
0.94600,5.201269211
0.94650,4.285685988
0.94700,-2.733785389
0.94750,-16.46753374
0.94800,-29.59089327
0.94850,-35.08439261
0.94900,-32.03244853
0.94950,-25.62336597
0.95000,-18.909089
0.95050,-10.9740344
0.95100,-2.428590981
0.95150,4.590880396
0.95200,10.69476855
0.95250,17.10385111
0.95300,25.34410012
0.95350,33.58434913
0.95400,37.85707084
0.95450,36.3310988
0.95500,28.09084979
0.95550,16.18826789
0.95600,5.201269211
0.95650,-0.2922301275
0.95700,-1.207813351
0.95750,-0.5974245352
0.95800,-0.9026189429
0.95850,-2.733785389
0.95900,-5.175340651
0.95950,-5.785729466
0.96000,-3.038979797
0.96050,0.3181586879
0.96100,0.3181586879
0.96150,-1.818202166
0.96200,-2.123396574
0.96250,2.149325134
0.96300,8.863602104
0.96350,11.91554618
0.96400,10.69476855
0.96450,8.253213288
0.96500,7.337630065
0.96550,6.422046842
0.96600,4.285685988
0.96650,1.538936319
0.96700,0.3181586879
0.96750,0.01296428019
0.96800,0.6233530956
0.96850,0.6233530956
0.96900,-0.9026189429
0.96950,-2.733785389
0.97000,-3.344174205
0.97050,-5.480535058
0.97100,-12.80520084
0.97150,-25.01297715
0.97200,-35.69478142
0.97250,-40.57789194
0.97300,-40.57789194
0.97350,-39.35711431
0.97400,-36.91555905
0.97450,-31.72725412
0.97500,-24.40258834
0.97550,-17.68831137
0.97600,-11.58442321
0.97650,-2.733785389
0.97700,10.08437973
0.97750,23.51293367
0.97800,31.75318268
0.97850,33.88954354
0.97900,32.6687659
0.97950,30.22721064
0.98000,25.03890571
0.98050,13.44151822
0.98100,0.01296428019
0.98150,-7.92209032
0.98200,-7.006507097
0.98250,-2.733785389
0.98300,0.01296428019
0.98350,1.233741911
0.98400,4.896074803
0.98450,8.558407696
0.98500,8.253213288
0.98550,5.201269211
0.98600,3.675297173
0.98650,4.590880396
0.98700,5.811658027
0.98750,6.422046842
0.98800,7.032435657
0.98850,4.896074803
0.98900,-0.9026189429
0.98950,-8.227284728
0.99000,-11.58442321
0.99050,-12.50000644
0.99100,-14.9415617
0.99150,-18.29870018
0.99200,-16.46753374
0.99250,-9.753256766
0.99300,-6.090923874
0.99350,-8.532479135
0.99400,-10.05845117
0.99450,-5.785729466
0.99500,-2.123396574
0.99550,-4.870146243
0.99600,-10.36364558
0.99650,-11.88961762
0.99700,-12.19481203
0.99750,-17.68831137
0.99800,-27.45453241
0.99850,-34.16880938
0.99900,-36.30517024
0.99950,-37.22075346
1.00000,-36.30517024
1.00050,-29.28569886
1.00100,-17.07792255
1.00150,-8.837673543
1.00200,-8.837673543
1.00250,-12.50000644
1.00300,-10.9740344
1.00350,-2.428590981
1.00400,11.30515737
1.00450,29.61682183
1.00500,47.62329188
1.00550,56.77912411
1.00600,51.28562477
1.00650,36.02590439
1.00700,21.98696163
1.00750,11.91554618
1.00800,0.6233530956
1.00850,-16.77272814
1.00900,-38.13633668
1.00950,-54.31164029
1.01000,-58.584362
1.01050,-50.03891858
1.01100,-31.11686531
1.01150,-7.616895912
1.01200,13.44151822
1.01250,26.25968334
1.01300,31.44798827
1.01350,36.6362932
1.01400,47.01290307
1.01450,59.52587378
1.01500,67.15573397
1.01550,66.24015075
1.01600,58.30509615
1.01650,46.70770866
1.01700,35.72070998
1.01750,31.14279387
1.01800,32.6687659
1.01850,34.49993235
1.01900,29.61682183
1.01950,21.07137841
1.02000,15.27268467
1.02050,13.44151822
1.02100,11.30515737
1.02150,7.337630065
1.02200,4.590880396
1.02250,3.370102765
1.02300,-0.2922301275
1.02350,-4.870146243
1.02400,-3.649368612
1.02450,3.064908357
1.02500,6.422046842
1.02550,1.844130726
1.02600,-3.344174205
1.02650,-4.870146243
1.02700,-8.532479135
1.02750,-20.12986663
1.02800,-31.72725412
1.02850,-33.25322616
1.02900,-25.62336597
1.02950,-18.909089
1.03000,-15.85714492
1.03050,-13.41558966
1.03100,-15.2467561
1.03150,-26.23375478
1.03200,-39.35711431
1.03250,-39.96750313
1.03300,-25.62336597
1.03350,-8.837673543
1.03400,-1.207813351
1.03450,1.233741911
1.03500,4.285685988
1.03550,5.201269211
1.03600,-0.5974245352
1.03650,-7.92209032
1.03700,-4.564951835
1.03750,10.69476855
1.03800,29.61682183
1.03850,43.04537577
1.03900,48.84406951
1.03950,47.92848629
1.04000,40.2986261
1.04050,29.31162742
1.04100,19.54540637
1.04150,13.44151822
1.04200,8.558407696
1.04250,3.675297173
1.04300,0.01296428019
1.04350,-0.5974245352
1.04400,2.149325134
1.04450,7.032435657
1.04500,10.99996296
1.04550,12.22074059
1.04600,10.99996296
1.04650,9.473990919
1.04700,8.558407696
1.04750,6.116852434
1.04800,-0.9026189429
1.04850,-11.58442321
1.04900,-20.43506104
1.04950,-24.09739393
1.05000,-23.79219952
1.05050,-24.09739393
1.05100,-27.75972682
1.05150,-33.55842057
1.05200,-38.13633668
1.05250,-34.47400379
1.05300,-19.21428341
1.05350,1.844130726
1.05400,18.62982315
1.05450,22.29215604
1.05500,15.88307348
1.05550,8.253213288
1.05600,6.72724125
1.05650,9.473990919
1.05700,10.69476855
1.05750,5.811658027
1.05800,-1.818202166
1.05850,-7.311701505
1.05900,-8.837673543
1.05950,-7.92209032
1.06000,-3.038979797
1.06050,6.116852434
1.06100,14.66229585
1.06150,13.74671263
1.06200,2.75971395
1.06250,-7.311701505
1.06300,-8.837673543
1.06350,-4.564951835
1.06400,-2.123396574
1.06450,-1.818202166
1.06500,0.3181586879
1.06550,4.285685988
1.06600,5.201269211
1.06650,3.98049158
1.06700,4.896074803
1.06750,9.168796511
1.06800,14.96749026
1.06850,19.54540637
1.06900,21.98696163
1.06950,21.37657282
1.07000,19.24021197
1.07050,18.01943433
1.07100,16.4934623
1.07150,10.99996296
1.07200,0.3181586879
1.07250,-7.92209032
1.07300,-7.311701505
1.07350,-1.207813351
1.07400,2.75971395
1.07450,2.149325134
1.07500,0.01296428019
1.07550,-4.870146243
1.07600,-13.11039525
1.07650,-22.26622748
1.07700,-26.23375478
1.07750,-24.70778274
1.07800,-22.8766163
1.07850,-21.96103307
1.07900,-18.60389459
1.07950,-12.19481203
1.08000,-8.227284728
1.08050,-9.753256766
1.08100,-13.11039525
1.08150,-12.50000644
1.08200,-7.006507097
1.08250,-1.513007758
1.08300,0.01296428019
1.08350,-1.818202166
1.08400,-3.344174205
1.08450,-3.344174205
1.08500,-3.95456302
1.08550,-7.311701505
1.08600,-11.88961762
1.08650,-14.9415617
1.08700,-16.16233933
1.08750,-16.16233933
1.08800,-13.72078407
1.08850,-9.753256766
1.08900,-5.785729466
1.08950,-3.95456302
1.09000,-2.123396574
1.09050,0.9285475033
1.09100,3.370102765
1.09150,3.064908357
1.09200,5.506463619
1.09250,15.88307348
1.09300,28.3960442
1.09350,32.05837709
1.09400,28.3960442
1.09450,27.48046097
1.09500,31.75318268
1.09550,31.75318268
1.09600,21.37657282
1.09650,10.99996296
1.09700,10.38957414
1.09750,15.88307348
1.09800,17.40904552
1.09850,14.66229585
1.09900,15.57787907
1.09950,22.59735045
1.10000,29.31162742
1.10050,29.31162742
1.10100,23.51293367
1.10150,16.4934623
1.10200,12.22074059
1.10250,9.779185327
1.10300,8.253213288
1.10350,4.285685988
1.10400,-3.95456302
1.10450,-17.07792255
1.10500,-30.8116709
1.10550,-39.35711431
1.10600,-40.57789194
1.10650,-38.7467255
1.10700,-39.35711431
1.10750,-40.27269754
1.10800,-34.47400379
1.10850,-19.21428341
1.10900,-0.2922301275
1.10950,15.27268467
1.11000,29.61682183
1.11050,44.5713478
1.11100,55.55834648
1.11150,53.72718004
1.11200,39.68823728
1.11250,22.90254486
1.11300,10.69476855
1.11350,2.75971395
1.11400,-4.870146243
1.11450,-11.2792288
1.11500,-14.33117288
1.11550,-14.02597847
1.11600,-14.02597847
1.11650,-15.55195051
1.11700,-18.29870018
1.11750,-20.12986663
1.11800,-19.21428341
1.11850,-14.63636729
1.11900,-6.090923874
1.11950,3.064908357
1.12000,10.08437973
1.12050,12.22074059
1.12100,10.38957414
1.12150,7.94801888
1.12200,7.337630065
1.12250,8.863602104
1.12300,11.61035177
1.12350,14.05190703
1.12400,14.05190703
1.12450,9.473990919
1.12500,-0.9026189429
1.12550,-15.85714492
1.12600,-28.98050445
1.12650,-35.38958701
1.12700,-33.55842057
1.12750,-27.14933801
1.12800,-22.26622748
1.12850,-22.26622748
1.12900,-25.62336597
1.12950,-27.75972682
1.13000,-25.01297715
1.13050,-17.99350577
1.13100,-8.532479135
1.13150,1.233741911
1.13200,11.61035177
1.13250,21.07137841
1.13300,28.3960442
1.13350,32.3635715
1.13400,30.83759946
1.13450,24.12332249
1.13500,14.05190703
1.13550,4.590880396
1.13600,-1.513007758
1.13650,-6.701312689
1.13700,-11.88961762
1.13750,-16.46753374
1.13800,-19.82467222
1.13850,-21.04544985
1.13900,-19.51947781
1.13950,-13.72078407
1.14000,-5.480535058
1.14050,0.9285475033
1.14100,4.285685988
1.14150,6.116852434
1.14200,7.94801888
1.14250,8.863602104
1.14300,7.94801888
1.14350,6.422046842
1.14400,3.064908357
1.14450,-4.259757428
1.14500,-16.16233933
1.14550,-25.31817156
1.14600,-26.53894919
1.14650,-22.8766163
1.14700,-19.51947781
1.14750,-15.85714492
1.14800,-6.396118282
1.14850,5.201269211
1.14900,9.779185327
1.14950,3.064908357
1.15000,-4.870146243
1.15050,-3.95456302
1.15100,4.896074803
1.15150,10.69476855
1.15200,7.337630065
1.15250,0.9285475033
1.15300,-2.123396574
1.15350,-2.123396574
1.15400,-2.123396574
1.15450,-1.513007758
1.15500,0.6233530956
1.15550,3.370102765
1.15600,4.896074803
1.15650,5.201269211
1.15700,6.72724125
1.15750,7.337630065
1.15800,3.98049158
1.15850,-2.428590981
1.15900,-9.142867951
1.15950,-13.41558966
1.16000,-14.63636729
1.16050,-11.2792288
1.16100,-1.818202166
1.16150,8.863602104
1.16200,14.66229585
1.16250,14.35710144
1.16300,12.22074059
1.16350,11.30515737
1.16400,8.863602104
1.16450,2.454519542
1.16500,-3.649368612
1.16550,-6.396118282
1.16600,-6.701312689
1.16650,-7.311701505
1.16700,-6.701312689
1.16750,-3.649368612
1.16800,-3.344174205
1.16850,-11.58442321
1.16900,-27.45453241
1.16950,-41.49347517
1.17000,-46.07139128
1.17050,-40.88308635
1.17100,-31.11686531
1.17150,-21.35064426
1.17200,-15.55195051
1.17250,-16.77272814
1.17300,-21.96103307
1.17350,-22.57142189
1.17400,-10.9740344
1.17450,7.94801888
1.17500,23.51293367
1.17550,29.31162742
1.17600,29.31162742
1.17650,29.31162742
1.17700,28.3960442
1.17750,19.54540637
1.17800,2.75971395
1.17850,-11.58442321
1.17900,-17.07792255
1.17950,-14.63636729
1.18000,-11.2792288
1.18050,-9.753256766
1.18100,-8.227284728
1.18150,-7.006507097
1.18200,-8.532479135
1.18250,-12.19481203
1.18300,-10.9740344
1.18350,-0.2922301275
1.18400,14.66229585
1.18450,25.95448893
1.18500,27.48046097
1.18550,22.29215604
1.18600,17.10385111
1.18650,14.05190703
1.18700,10.69476855
1.18750,5.201269211
1.18800,0.3181586879
1.18850,0.01296428019
1.18900,3.370102765
1.18950,7.94801888
1.19000,10.38957414
1.19050,10.38957414
1.19100,5.201269211
1.19150,-6.701312689
1.19200,-21.35064426
1.19250,-30.8116709
1.19300,-32.94803175
1.19350,-32.64283734
1.19400,-31.11686531
1.19450,-26.8441436
1.19500,-21.96103307
1.19550,-21.96103307
1.19600,-25.62336597
1.19650,-24.40258834
1.19700,-17.99350577
1.19750,-18.29870018
1.19800,-30.50647649
1.19850,-41.79866957
1.19900,-40.27269754
1.19950,-32.03244853
1.20000,-29.89608767
1.20050,-31.11686531
1.20100,-23.79219952
1.20150,-6.396118282
1.20200,9.779185327
1.20250,20.766184
1.20300,32.97396031
1.20350,52.201208
1.20400,74.17520535
1.20450,90.96089778
1.20500,97.98036915
1.20550,94.01284185
1.20600,81.49987114
1.20650,65.32456753
1.20700,50.37004155
1.20750,36.3310988
1.20800,24.4285169
1.20850,19.54540637
1.20900,24.12332249
1.20950,31.75318268
1.21000,32.3635715
1.21050,24.12332249
1.21100,10.69476855
1.21150,-5.480535058
1.21200,-24.70778274
1.21250,-41.18828076
1.21300,-47.90255773
1.21350,-45.15580806
1.21400,-39.05191991
1.21450,-34.47400379
1.21500,-31.11686531
1.21550,-27.45453241
1.21600,-22.8766163
1.21650,-16.16233933
1.21700,-4.564951835
1.21750,12.22074059
1.21800,32.05837709
1.21850,46.70770866
1.21900,48.2336807
1.21950,36.02590439
1.22000,20.15579519
1.22050,10.08437973
1.22100,7.337630065
1.22150,4.590880396
1.22200,-0.9026189429
1.22250,-5.785729466
1.22300,-6.701312689
1.22350,-4.259757428
1.22400,-1.207813351
1.22450,2.454519542
1.22500,7.337630065
1.22550,11.61035177
1.22600,12.8311294
1.22650,10.08437973
1.22700,3.98049158
1.22750,-3.344174205
1.22800,-10.36364558
1.22850,-16.77272814
1.22900,-21.96103307
1.22950,-22.26622748
1.23000,-14.02597847
1.23050,-3.038979797
1.23100,0.6233530956
1.23150,-3.649368612
1.23200,-4.259757428
1.23250,6.422046842
1.23300,20.4609896
1.23350,24.12332249
1.23400,17.71423993
1.23450,11.30515737
1.23500,6.422046842
1.23550,-0.5974245352
1.23600,-8.837673543
1.23650,-8.532479135
1.23700,0.01296428019
1.23750,7.337630065
1.23800,7.032435657
1.23850,1.233741911
1.23900,-6.090923874
1.23950,-17.99350577
1.24000,-32.33764294
1.24050,-40.27269754
1.24100,-35.99997583
1.24150,-25.62336597
1.24200,-17.68831137
1.24250,-14.33117288
1.24300,-10.36364558
1.24350,-3.038979797
1.24400,6.422046842
1.24450,14.96749026
1.24500,22.29215604
1.24550,26.87007216
1.24600,27.48046097
1.24650,22.29215604
1.24700,13.44151822
1.24750,5.506463619
1.24800,2.149325134
1.24850,2.454519542
1.24900,1.538936319
1.24950,-1.207813351
1.25000,-3.649368612
1.25050,-3.95456302
1.25100,-3.649368612
1.25150,-4.870146243
1.25200,-6.701312689
1.25250,-6.396118282
1.25300,-4.564951835
1.25350,-2.733785389
1.25400,-0.5974245352
1.25450,1.538936319
1.25500,3.98049158
1.25550,7.642824473
1.25600,14.05190703
1.25650,21.37657282
1.25700,24.4285169
1.25750,20.15579519
1.25800,12.8311294
1.25850,7.337630065
1.25900,4.590880396
1.25950,2.149325134
1.26000,-0.2922301275
1.26050,-0.5974245352
1.26100,1.844130726
1.26150,5.506463619
1.26200,7.94801888
1.26250,9.473990919
1.26300,10.08437973
1.26350,9.779185327
1.26400,8.863602104
1.26450,5.811658027
1.26500,0.9285475033
1.26550,-2.123396574
1.26600,-0.5974245352
1.26650,5.201269211
1.26700,8.863602104
1.26750,4.896074803
1.26800,-4.870146243
1.26850,-13.72078407
1.26900,-18.60389459
1.26950,-21.96103307
1.27000,-26.23375478
1.27050,-30.50647649
1.27100,-31.72725412
1.27150,-28.37011564
1.27200,-21.35064426
1.27250,-12.80520084
1.27300,-5.480535058
1.27350,1.233741911
1.27400,12.525935
1.27450,29.00643301
1.27500,46.09731984
1.27550,57.08431852
1.27600,60.74665141
1.27650,59.52587378
1.27700,55.55834648
1.27750,46.70770866
1.27800,33.58434913
1.27850,19.85060078
1.27900,8.863602104
1.27950,-0.9026189429
1.28000,-11.2792288
1.28050,-16.77272814
1.28100,-11.2792288
1.28150,2.454519542
1.28200,13.13632381
1.28250,13.13632381
1.28300,9.168796511
1.28350,14.35710144
1.28400,30.53240505
1.28450,47.31809747
1.28500,54.33756885
1.28550,51.59081918
1.28600,45.48693103
1.28650,40.6038205
1.28700,33.27915472
1.28750,20.4609896
1.28800,6.72724125
1.28850,0.3181586879
1.28900,1.538936319
1.28950,3.675297173
1.29000,1.538936319
1.29050,0.3181586879
1.29100,4.590880396
1.29150,10.69476855
1.29200,10.99996296
1.29250,7.642824473
1.29300,10.08437973
1.29350,17.10385111
1.29400,17.71423993
1.29450,9.473990919
1.29500,3.675297173
1.29550,8.558407696
1.29600,17.40904552
1.29650,18.93501756
1.29700,14.05190703
1.29750,9.473990919
1.29800,5.201269211
1.29850,-3.344174205
1.29900,-14.63636729
1.29950,-24.70778274
1.30000,-35.08439261
1.30050,-49.73372418
1.30100,-61.02591726
1.30150,-55.22722351
1.30200,-32.03244853
1.30250,-6.701312689
1.30300,6.422046842
1.30350,10.38957414
1.30400,14.96749026
1.30450,23.81812808
1.30500,34.80512676
1.30550,46.40251425
1.30600,57.69470734
1.30650,63.18820667
1.30700,59.22067937
1.30750,48.5388751
1.30800,39.07784847
1.30850,32.97396031
1.30900,26.87007216
1.30950,19.24021197
1.31000,14.35710144
1.31050,15.88307348
1.31100,18.32462874
1.31150,14.35710144
1.31200,6.72724125
1.31250,4.590880396
1.31300,9.473990919
1.31350,11.30515737
1.31400,3.675297173
1.31450,-7.616895912
1.31500,-12.80520084
1.31550,-12.80520084
1.31600,-16.16233933
1.31650,-25.92856037
1.31700,-35.69478142
1.31750,-39.96750313
1.31800,-39.05191991
1.31850,-35.08439261
1.31900,-26.23375478
1.31950,-11.88961762
1.32000,1.538936319
1.32050,7.94801888
1.32100,8.863602104
1.32150,12.22074059
1.32200,23.20773927
1.32250,36.94148761
1.32300,46.40251425
1.32350,51.28562477
1.32400,54.64276326
1.32450,56.1687353
1.32500,51.89601359
1.32550,41.21420932
1.32600,29.00643301
1.32650,20.766184
1.32700,18.01943433
1.32750,18.62982315
1.32800,21.68176723
1.32850,23.51293367
1.32900,18.93501756
1.32950,4.896074803
1.33000,-12.50000644
1.33050,-25.31817156
1.33100,-29.28569886
1.33150,-29.28569886
1.33200,-29.89608767
1.33250,-32.33764294
1.33300,-34.47400379
1.33350,-36.61036464
1.33400,-39.66230872
1.33450,-40.57789194
1.33500,-33.55842057
1.33550,-16.46753374
1.33600,3.064908357
1.33650,15.57787907
1.33700,15.57787907
1.33750,9.473990919
1.33800,5.506463619
1.33850,4.590880396
1.33900,1.538936319
1.33950,-6.396118282
1.34000,-17.68831137
1.34050,-28.67531004
1.34100,-40.88308635
1.34150,-57.97397318
1.34200,-79.03238731
1.34250,-96.12327415
1.34300,-101.6167735
1.34350,-95.20769092
1.34400,-84.22069225
1.34450,-75.67524883
1.34500,-69.57136068
1.34550,-61.63630608
1.34600,-50.6493074
1.34650,-41.49347517
1.34700,-37.22075346
1.34750,-35.08439261
1.34800,-31.11686531
1.34850,-27.75972682
1.34900,-28.67531004
1.34950,-33.55842057
1.35000,-37.83114227
1.35050,-38.7467255
1.35100,-39.35711431
1.35150,-41.79866957
1.35200,-46.37658569
1.35250,-49.73372418
1.35300,-47.59736332
1.35350,-39.05191991
1.35400,-28.37011564
1.35450,-22.26622748
1.35500,-23.79219952
1.35550,-31.11686531
1.35600,-38.44153109
1.35650,-41.79866957
1.35700,-40.88308635
1.35750,-38.7467255
1.35800,-38.7467255
1.35850,-41.49347517
1.35900,-41.49347517
1.35950,-36.30517024
1.36000,-30.50647649
1.36050,-31.42205971
1.36100,-36.30517024
1.36150,-35.08439261
1.36200,-24.40258834
1.36250,-13.72078407
1.36300,-11.2792288
1.36350,-14.33117288
1.36400,-15.2467561
1.36450,-11.88961762
1.36500,-8.227284728
1.36550,-7.616895912
1.36600,-9.753256766
1.36650,-14.02597847
1.36700,-17.07792255
1.36750,-16.16233933
1.36800,-12.80520084
1.36850,-13.72078407
1.36900,-21.35064426
1.36950,-29.28569886
1.37000,-30.20128208
1.37050,-26.53894919
1.37100,-24.70778274
1.37150,-26.23375478
1.37200,-25.92856037
1.37250,-23.18181071
1.37300,-20.74025544
1.37350,-19.21428341
1.37400,-15.55195051
1.37450,-9.448062359
1.37500,-2.428590981
1.37550,4.896074803
1.37600,13.44151822
1.37650,18.93501756
1.37700,16.7986567
1.37750,9.168796511
1.37800,3.370102765
1.37850,0.6233530956
1.37900,-3.649368612
1.37950,-9.448062359
1.38000,-11.2792288
1.38050,-8.837673543
1.38100,-9.448062359
1.38150,-15.85714492
1.38200,-18.60389459
1.38250,-10.66883999
1.38300,-1.513007758
1.38350,-6.701312689
1.38400,-29.59089327
1.38450,-54.31164029
1.38500,-64.07786134
1.38550,-57.36358437
1.38600,-46.6817801
1.38650,-43.93503043
1.38700,-48.81814095
1.38750,-50.95450181
1.38800,-44.85061365
1.38850,-35.38958701
1.38900,-27.14933801
1.38950,-14.9415617
1.39000,9.168796511
1.39050,39.99343169
1.39100,62.27262345
1.39150,68.68170601
1.39200,65.01937312
1.39250,58.30509615
1.39300,49.14926392
1.39350,39.07784847
1.39400,35.11032117
1.39450,41.21420932
1.39500,50.06484714
1.39550,53.42198563
1.39600,53.42198563
1.39650,56.1687353
1.39700,60.74665141
1.39750,63.49340108
1.39800,66.85053957
1.39850,75.09078857
1.39900,84.55181521
1.39950,86.38298166
1.40000,78.75312147
1.40050,69.90248364
1.40100,63.79859549
1.40150,54.33756885
1.40200,36.6362932
1.40250,17.71423993
1.40300,8.558407696
1.40350,10.38957414
1.40400,12.525935
1.40450,7.337630065
1.40500,-0.5974245352
1.40550,-2.123396574
1.40600,3.370102765
1.40650,7.337630065
1.40700,2.149325134
1.40750,-6.701312689
1.40800,-7.311701505
1.40850,4.285685988
1.40900,19.24021197
1.40950,25.03890571
1.41000,19.54540637
1.41050,11.61035177
1.41100,9.473990919
1.41150,10.99996296
1.41200,7.94801888
1.41250,-2.123396574
1.41300,-15.85714492
1.41350,-25.92856037
1.41400,-31.72725412
1.41450,-38.7467255
1.41500,-47.90255773
1.41550,-53.39605707
1.41600,-50.03891858
1.41650,-43.32464161
1.41700,-45.46100247
1.41750,-59.19475081
1.41800,-71.09733271
1.41850,-67.43499982
1.41900,-50.6493074
1.41950,-35.38958701
1.42000,-30.8116709
1.42050,-32.64283734
1.42100,-34.47400379
1.42150,-35.08439261
1.42200,-31.42205971
1.42250,-16.46753374
1.42300,10.99996296
1.42350,40.6038205
1.42400,60.74665141
1.42450,71.73365009
1.42500,83.02584317
1.42550,97.98036915
1.42600,108.356979
1.42650,105.9154238
1.42700,92.18167541
1.42750,73.25962213
1.42800,54.03237444
1.42850,36.02590439
1.42900,18.01943433
1.42950,-1.207813351
1.43000,-21.04544985
1.43050,-37.52594787
1.43100,-48.20775214
1.43150,-53.70125148
1.43200,-57.05838996
1.43250,-58.88955641
1.43300,-58.88955641
1.43350,-58.584362
1.43400,-58.584362
1.43450,-56.14280674
1.43500,-46.98697451
1.43550,-32.94803175
1.43600,-19.51947781
1.43650,-11.88961762
1.43700,-11.88961762
1.43750,-16.46753374
1.43800,-21.04544985
1.43850,-22.57142189
1.43900,-21.35064426
1.43950,-20.43506104
1.44000,-20.43506104
1.44050,-17.68831137
1.44100,-10.66883999
1.44150,-2.123396574
1.44200,5.201269211
1.44250,11.91554618
1.44300,20.4609896
1.44350,29.92201623
1.44400,39.38304287
1.44450,49.45445833
1.44500,59.83106819
1.44550,67.46092838
1.44600,68.68170601
1.44650,64.1037899
1.44700,56.1687353
1.44750,47.01290307
1.44800,38.16226524
1.44850,28.3960442
1.44900,14.66229585
1.44950,-4.564951835
1.45000,-25.62336597
1.45050,-41.49347517
1.45100,-51.56489062
1.45150,-58.88955641
1.45200,-63.77266693
1.45250,-62.24669489
1.45300,-52.78566825
1.45350,-39.96750313
1.45400,-26.23375478
1.45450,-11.2792288
1.45500,1.844130726
1.45550,6.116852434
1.45600,-0.9026189429
1.45650,-10.66883999
1.45700,-11.88961762
1.45750,-3.95456302
1.45800,6.116852434
1.45850,13.74671263
1.45900,18.62982315
1.45950,22.90254486
1.46000,26.56487775
1.46050,29.00643301
1.46100,30.53240505
1.46150,29.92201623
1.46200,28.09084979
1.46250,25.95448893
1.46300,23.51293367
1.46350,18.32462874
1.46400,7.642824473
1.46450,-7.92209032
1.46500,-25.62336597
1.46550,-43.01944721
1.46600,-57.66877878
1.46650,-63.77266693
1.46700,-56.75319555
1.46750,-40.27269754
1.46800,-28.67531004
1.46850,-32.03244853
1.46900,-44.85061365
1.46950,-50.6493074
1.47000,-40.88308635
1.47050,-24.09739393
1.47100,-12.50000644
1.47150,-5.480535058
1.47200,3.370102765
1.47250,14.66229585
1.47300,21.98696163
1.47350,26.56487775
1.47400,37.24668202
1.47450,57.08431852
1.47500,76.0063718
1.47550,82.41545436
1.47600,76.61676061
1.47650,64.71417871
1.47700,51.28562477
1.47750,37.55187643
1.47800,25.34410012
1.47850,15.27268467
1.47900,6.422046842
1.47950,0.9285475033
1.48000,5.506463619
1.48050,21.37657282
1.48100,38.46745965
1.48150,43.35057017
1.48200,34.49993235
1.48250,25.34410012
1.48300,26.56487775
1.48350,36.02590439
1.48400,42.74018136
1.48450,39.38304287
1.48500,29.00643301
1.48550,19.54540637
1.48600,16.7986567
1.48650,19.85060078
1.48700,25.03890571
1.48750,29.31162742
1.48800,30.53240505
1.48850,29.00643301
1.48900,25.95448893
1.48950,23.20773927
1.49000,20.766184
1.49050,20.15579519
1.49100,21.37657282
1.49150,25.34410012
1.49200,30.22721064
1.49250,34.49993235
1.49300,36.6362932
1.49350,37.85707084
1.49400,39.07784847
1.49450,41.82459814
1.49500,49.14926392
1.49550,60.1362626
1.49600,69.29209483
1.49650,72.95442772
1.49700,75.70117739
1.49750,83.63623199
1.49800,95.8440083
1.49850,105.3050349
1.49900,107.4413958
1.49950,103.4738685
1.50000,94.62323067
1.50050,79.36351028
1.50100,61.05184582
1.50150,46.70770866
1.50200,37.55187643
1.50250,26.25968334
1.50300,8.558407696
1.50350,-7.92209032
1.50400,-18.29870018
1.50450,-25.01297715
1.50500,-30.20128208
1.50550,-27.14933801
1.50600,-10.05845117
1.50650,12.525935
1.50700,26.25968334
1.50750,28.09084979
1.50800,25.03890571
1.50850,21.07137841
1.50900,14.96749026
1.50950,7.032435657
1.51000,1.538936319
1.51050,-3.344174205
1.51100,-11.88961762
1.51150,-19.82467222
1.51200,-17.99350577
1.51250,-7.616895912
1.51300,-3.344174205
1.51350,-14.02597847
1.51400,-30.20128208
1.51450,-35.38958701
1.51500,-22.26622748
1.51550,3.064908357
1.51600,29.31162742
1.51650,50.06484714
1.51700,64.1037899
1.51750,72.34403891
1.51800,75.09078857
1.51850,71.42845568
1.51900,66.54534516
1.51950,66.85053957
1.52000,72.34403891
1.52050,74.48039976
1.52100,67.46092838
1.52150,59.22067937
1.52200,60.1362626
1.52250,68.68170601
1.52300,73.25962213
1.52350,69.29209483
1.52400,66.85053957
1.52450,75.09078857
1.52500,88.82453692
1.52550,90.04531455
1.52600,65.01937312
1.52650,17.71423993
1.52700,-33.25322616
1.52750,-73.23369357
1.52800,-100.0908014
1.52850,-122.6751876
1.52900,-144.649185
1.52950,-159.9089054
1.53000,-161.4348774
1.53050,-151.3634619
1.53100,-135.4933527
1.53150,-119.3180491
1.53200,-107.7206616
1.53250,-103.4479399
1.53300,-103.7531343
1.53350,-100.3959959
1.53400,-90.62977481
1.53450,-79.64277613
1.53500,-72.31811035
1.53550,-63.46747252
1.53600,-44.85061365
1.53650,-17.99350577
1.53700,5.201269211
1.53750,16.18826789
1.53800,19.54540637
1.53850,27.78565538
1.53900,45.18173662
1.53950,64.1037899
1.54000,72.34403891
1.54050,65.32456753
1.54100,49.45445833
1.54150,34.19473794
1.54200,22.29215604
1.54250,8.558407696
1.54300,-11.58442321
1.54350,-39.35711431
1.54400,-68.65577745
1.54450,-92.46094125
1.54500,-108.025856
1.54550,-117.7920771
1.54600,-121.7596044
1.54650,-115.6557162
1.54700,-96.42846855
1.54750,-68.96097186
1.54800,-41.79866957
1.54850,-15.55195051
1.54900,13.74671263
1.54950,45.18173662
1.55000,67.15573397
1.55050,70.81806687
1.55100,58.30509615
1.55150,40.6038205
1.55200,26.25968334
1.55250,15.27268467
1.55300,5.201269211
1.55350,-5.785729466
1.55400,-16.46753374
1.55450,-23.18181071
1.55500,-23.48700511
1.55550,-19.21428341
1.55600,-15.55195051
1.55650,-14.02597847
1.55700,-12.19481203
1.55750,-9.142867951
1.55800,-6.701312689
1.55850,-4.870146243
1.55900,-1.513007758
1.55950,3.370102765
1.56000,9.473990919
1.56050,16.18826789
1.56100,24.4285169
1.56150,31.44798827
1.56200,31.14279387
1.56250,23.20773927
1.56300,16.18826789
1.56350,16.18826789
1.56400,18.62982315
1.56450,14.96749026
1.56500,4.590880396
1.56550,-3.649368612
1.56600,-5.785729466
1.56650,-3.649368612
1.56700,-1.513007758
1.56750,0.3181586879
1.56800,2.149325134
1.56850,3.370102765
1.56900,3.064908357
1.56950,0.9285475033
1.57000,-3.038979797
1.57050,-8.532479135
1.57100,-11.88961762
1.57150,-9.448062359
1.57200,-0.5974245352
1.57250,12.22074059
1.57300,28.7012386
1.57350,46.40251425
1.57400,60.74665141
1.57450,65.32456753
1.57500,61.66223464
1.57550,56.4739297
1.57600,54.03237444
1.57650,49.14926392
1.57700,36.94148761
1.57750,19.54540637
1.57800,4.285685988
1.57850,-5.175340651
1.57900,-10.66883999
1.57950,-15.2467561
1.58000,-20.12986663
1.58050,-24.09739393
1.58100,-25.01297715
1.58150,-22.57142189
1.58200,-19.51947781
1.58250,-19.51947781
1.58300,-21.35064426
1.58350,-20.12986663
1.58400,-14.33117288
1.58450,-9.448062359
1.58500,-11.2792288
1.58550,-18.909089
1.58600,-26.23375478
1.58650,-29.28569886
1.58700,-31.11686531
1.58750,-35.38958701
1.58800,-41.49347517
1.58850,-45.76619688
1.58900,-43.93503043
1.58950,-33.55842057
1.59000,-14.63636729
1.59050,7.032435657
1.59100,23.51293367
1.59150,30.22721064
1.59200,30.83759946
1.59250,32.05837709
1.59300,36.02590439
1.59350,39.99343169
1.59400,43.65576458
1.59450,47.31809747
1.59500,47.92848629
1.59550,41.21420932
1.59600,30.83759946
1.59650,27.17526657
1.59700,32.6687659
1.59750,35.41551557
1.59800,26.25968334
1.59850,12.525935
1.59900,6.116852434
1.59950,5.201269211
1.60000,0.9285475033
1.60050,-7.311701505
1.60100,-11.2792288
1.60150,-6.701312689
1.60200,0.3181586879
1.60250,4.896074803
1.60300,9.779185327
1.60350,15.57787907
1.60400,20.15579519
1.60450,23.51293367
1.60500,29.61682183
1.60550,40.2986261
1.60600,49.45445833
1.60650,49.14926392
1.60700,36.02590439
1.60750,16.4934623
1.60800,0.01296428019
1.60850,-5.480535058
1.60900,-1.513007758
1.60950,3.064908357
1.61000,3.064908357
1.61050,0.6233530956
1.61100,0.6233530956
1.61150,1.233741911
1.61200,0.3181586879
1.61250,0.3181586879
1.61300,7.337630065
1.61350,18.01943433
1.61400,25.95448893
1.61450,29.61682183
1.61500,33.58434913
1.61550,38.77265406
1.61600,42.43498695
1.61650,42.43498695
1.61700,41.82459814
1.61750,43.04537577
1.61800,44.2661534
1.61850,42.12979254
1.61900,36.6362932
1.61950,29.61682183
1.62000,23.20773927
1.62050,17.71423993
1.62100,12.525935
1.62150,6.422046842
1.62200,-2.428590981
1.62250,-16.46753374
1.62300,-35.08439261
1.62350,-54.00644588
1.62400,-68.65577745
1.62450,-79.33758172
1.62500,-87.57783073
1.62550,-92.46094125
1.62600,-89.40899718
1.62650,-80.25316495
1.62700,-73.23369357
1.62750,-71.70772153
1.62800,-67.12980541
1.62850,-52.78566825
1.62900,-35.99997583
1.62950,-28.06492123
1.63000,-29.59089327
1.63050,-32.94803175
1.63100,-36.61036464
1.63150,-43.32464161
1.63200,-51.87008503
1.63250,-55.22722351
1.63300,-52.78566825
1.63350,-48.81814095
1.63400,-43.93503043
1.63450,-35.69478142
1.63500,-26.8441436
1.63550,-25.01297715
1.63600,-30.50647649
1.63650,-33.86361497
1.63700,-26.8441436
1.63750,-13.11039525
1.63800,-0.5974245352
1.63850,7.032435657
1.63900,10.99996296
1.63950,8.863602104
1.64000,-4.564951835
1.64050,-27.14933801
1.64100,-46.07139128
1.64150,-48.51294654
1.64200,-36.61036464
1.64250,-25.92856037
1.64300,-25.62336597
1.64350,-28.37011564
1.64400,-25.01297715
1.64450,-18.29870018
1.64500,-18.29870018
1.64550,-22.57142189
1.64600,-19.51947781
1.64650,-6.090923874
1.64700,7.337630065
1.64750,14.35710144
1.64800,17.10385111
1.64850,20.15579519
1.64900,20.4609896
1.64950,17.40904552
1.65000,16.7986567
1.65050,23.81812808
1.65100,29.92201623
1.65150,23.20773927
1.65200,-0.9026189429
1.65250,-35.08439261
1.65300,-66.82461101
1.65350,-89.40899718
1.65400,-103.7531343
1.65450,-114.4349386
1.65500,-123.8959652
1.65550,-131.220631
1.65600,-135.1881583
1.65650,-135.7985471
1.65700,-132.7466031
1.65750,-125.4219373
1.65800,-116.8764939
1.65850,-111.0778001
1.65900,-105.5843008
1.65950,-91.54535803
1.66000,-68.04538864
1.66050,-46.07139128
1.66100,-35.69478142
1.66150,-33.55842057
1.66200,-30.8116709
1.66250,-28.98050445
1.66300,-31.42205971
1.66350,-35.99997583
1.66400,-36.61036464
1.66450,-32.03244853
1.66500,-25.31817156
1.66550,-14.63636729
1.66600,2.454519542
1.66650,18.93501756
1.66700,23.51293367
1.66750,13.44151822
1.66800,-2.428590981
1.66850,-16.16233933
1.66900,-24.40258834
1.66950,-27.14933801
1.67000,-26.53894919
1.67050,-26.8441436
1.67100,-29.28569886
1.67150,-29.28569886
1.67200,-20.43506104
1.67250,-3.95456302
1.67300,10.99996296
1.67350,20.15579519
1.67400,24.7337113
1.67450,29.61682183
1.67500,36.6362932
1.67550,42.74018136
1.67600,44.87654221
1.67650,40.90901491
1.67700,32.6687659
1.67750,24.12332249
1.67800,17.10385111
1.67850,10.99996296
1.67900,5.811658027
1.67950,4.590880396
1.68000,8.253213288
1.68050,12.8311294
1.68100,14.35710144
1.68150,12.22074059
1.68200,8.558407696
1.68250,4.590880396
1.68300,0.3181586879
1.68350,-4.870146243
1.68400,-11.58442321
1.68450,-19.82467222
1.68500,-26.8441436
1.68550,-27.45453241
1.68600,-21.35064426
1.68650,-14.9415617
1.68700,-16.46753374
1.68750,-23.48700511
1.68800,-27.75972682
1.68850,-21.04544985
1.68900,-3.95456302
1.68950,18.62982315
1.69000,39.99343169
1.69050,49.75965274
1.69100,43.04537577
1.69150,25.34410012
1.69200,10.69476855
1.69250,7.032435657
1.69300,9.779185327
1.69350,9.779185327
1.69400,4.285685988
1.69450,-4.564951835
1.69500,-14.33117288
1.69550,-21.35064426
1.69600,-21.65583867
1.69650,-12.80520084
1.69700,0.01296428019
1.69750,8.253213288
1.69800,10.08437973
1.69850,9.779185327
1.69900,11.61035177
1.69950,14.05190703
1.70000,14.35710144
1.70050,12.8311294
1.70100,10.99996296
1.70150,7.94801888
1.70200,5.811658027
1.70250,8.558407696
1.70300,16.7986567
1.70350,25.95448893
1.70400,32.3635715
1.70450,39.07784847
1.70500,50.98043037
1.70550,64.71417871
1.70600,71.12326127
1.70650,67.46092838
1.70700,57.69470734
1.70750,47.31809747
1.70800,37.85707084
1.70850,28.7012386
1.70900,21.98696163
1.70950,18.62982315
1.71000,17.40904552
1.71050,16.18826789
1.71100,13.74671263
1.71150,10.08437973
1.71200,5.201269211
1.71250,0.01296428019
1.71300,-6.701312689
1.71350,-15.55195051
1.71400,-25.31817156
1.71450,-32.64283734
1.71500,-34.47400379
1.71550,-33.25322616
1.71600,-32.33764294
1.71650,-33.25322616
1.71700,-35.08439261
1.71750,-37.22075346
1.71800,-39.05191991
1.71850,-39.05191991
1.71900,-37.52594787
1.71950,-38.44153109
1.72000,-43.01944721
1.72050,-46.37658569
1.72100,-44.54541924
1.72150,-42.10386398
1.72200,-46.98697451
1.72250,-59.80513963
1.72300,-71.40252712
1.72350,-73.84408238
1.72400,-65.90902778
1.72450,-52.17527944
1.72500,-35.99997583
1.72550,-21.35064426
1.72600,-11.2792288
1.72650,-5.480535058
1.72700,1.233741911
1.72750,14.05190703
1.72800,34.19473794
1.72850,59.83106819
1.72900,84.24662081
1.72950,97.36998034
1.73000,94.62323067
1.73050,82.72064877
1.73100,73.56481654
1.73150,70.51287246
1.73200,69.90248364
1.73250,68.68170601
1.73300,68.0713172
1.73350,67.15573397
1.73400,63.18820667
1.73450,57.69470734
1.73500,53.72718004
1.73550,50.67523596
1.73600,47.01290307
1.73650,44.87654221
1.73700,48.2336807
1.73750,53.72718004
1.73800,52.5064024
1.73850,41.82459814
1.73900,27.48046097
1.73950,14.96749026
1.74000,4.896074803
1.74050,-3.344174205
1.74100,-10.05845117
1.74150,-20.12986663
1.74200,-39.05191991
1.74250,-62.24669489
1.74300,-76.28563765
1.74350,-76.59083205
1.74400,-72.92849916
1.74450,-76.59083205
1.74500,-85.13627547
1.74550,-87.57783073
1.74600,-81.16874817
1.74650,-70.4869439
1.74700,-60.11033404
1.74750,-50.03891858
1.74800,-39.66230872
1.74850,-28.98050445
1.74900,-16.46753374
1.74950,-1.818202166
1.75000,12.22074059
1.75050,25.03890571
1.75100,39.38304287
1.75150,55.25315207
1.75200,68.68170601
1.75250,75.09078857
1.75300,77.83753824
1.75350,79.9738991
1.75400,77.53234384
1.75450,68.68170601
1.75500,61.66223464
1.75550,67.76612279
1.75600,83.63623199
1.75650,93.09725863
1.75700,86.07778725
1.75750,68.0713172
1.75800,47.31809747
1.75850,26.87007216
1.75900,6.72724125
1.75950,-8.532479135
1.76000,-17.68831137
1.76050,-26.8441436
1.76100,-38.44153109
1.76150,-47.59736332
1.76200,-50.95450181
1.76250,-53.70125148
1.76300,-61.33111167
1.76350,-68.35058304
1.76400,-69.87655508
1.76450,-71.40252712
1.76500,-79.64277613
1.76550,-88.79860836
1.76600,-86.66224751
1.76650,-74.14927679
1.76700,-64.07786134
1.76750,-59.80513963
1.76800,-52.17527944
1.76850,-36.61036464
1.76900,-22.8766163
1.76950,-17.38311696
1.77000,-13.11039525
1.77050,-2.123396574
1.77100,10.38957414
1.77150,16.18826789
1.77200,18.01943433
1.77250,23.81812808
1.77300,32.3635715
1.77350,34.19473794
1.77400,27.78565538
1.77450,18.32462874
1.77500,9.473990919
1.77550,-1.513007758
1.77600,-12.19481203
1.77650,-14.02597847
1.77700,-4.259757428
1.77750,7.032435657
1.77800,10.38957414
1.77850,4.590880396
1.77900,-4.564951835
1.77950,-12.19481203
1.78000,-14.63636729
1.78050,-10.05845117
1.78100,-1.207813351
1.78150,6.116852434
1.78200,10.69476855
1.78250,15.88307348
1.78300,18.01943433
1.78350,8.253213288
1.78400,-12.50000644
1.78450,-26.8441436
1.78500,-17.99350577
1.78550,7.032435657
1.78600,29.00643301
1.78650,36.94148761
1.78700,37.55187643
1.78750,35.11032117
1.78800,26.56487775
1.78850,15.57787907
1.78900,14.05190703
1.78950,23.20773927
1.79000,25.34410012
1.79050,7.337630065
1.79100,-21.65583867
1.79150,-44.24022484
1.79200,-56.14280674
1.79250,-63.46747252
1.79300,-65.60383338
1.79350,-57.66877878
1.79400,-44.24022484
1.79450,-33.55842057
1.79500,-26.23375478
1.79550,-15.85714492
1.79600,-5.785729466
1.79650,-2.123396574
1.79700,-2.428590981
1.79750,0.01296428019
1.79800,-0.2922301275
1.79850,-13.72078407
1.79900,-33.55842057
1.79950,-38.13633668
1.80000,-22.57142189
1.80050,-3.95456302
1.80100,10.08437973
1.80150,30.83759946
1.80200,62.27262345
1.80250,86.38298166
1.80300,88.51934251
1.80350,81.80506554
1.80400,86.99337048
1.80450,101.0323132
1.80500,103.7790629
1.80550,89.74012014
1.80600,72.34403891
1.80650,61.66223464
1.80700,57.99990174
1.80750,60.74665141
1.80800,71.42845568
1.80850,83.63623199
1.80900,85.46739844
1.80950,71.42845568
1.81000,48.5388751
1.81050,22.90254486
1.81100,-3.344174205
1.81150,-28.37011564
1.81200,-45.46100247
1.81250,-52.48047384
1.81300,-54.92202911
1.81350,-57.66877878
1.81400,-60.11033404
1.81450,-59.49994522
1.81500,-54.31164029
1.81550,-43.32464161
1.81600,-26.53894919
1.81650,-8.227284728
1.81700,3.064908357
1.81750,5.811658027
1.81800,6.422046842
1.81850,10.38957414
1.81900,15.88307348
1.81950,18.62982315
1.82000,20.766184
1.82050,28.3960442
1.82100,42.12979254
1.82150,57.38951293
1.82200,70.51287246
1.82250,81.49987114
1.82300,87.9089537
1.82350,84.85700962
1.82400,72.64923331
1.82450,58.30509615
1.82500,47.01290307
1.82550,36.6362932
1.82600,22.59735045
1.82650,7.032435657
1.82700,-5.785729466
1.82750,-15.2467561
1.82800,-23.48700511
1.82850,-28.37011564
1.82900,-25.62336597
1.82950,-17.07792255
1.83000,-10.05845117
1.83050,-5.785729466
1.83100,0.6233530956
1.83150,10.99996296
1.83200,16.7986567
1.83250,9.473990919
1.83300,-7.616895912
1.83350,-25.01297715
1.83400,-36.91555905
1.83450,-42.40905839
1.83500,-41.49347517
1.83550,-34.47400379
1.83600,-28.06492123
1.83650,-31.11686531
1.83700,-42.7142528
1.83750,-51.87008503
1.83800,-50.03891858
1.83850,-39.96750313
1.83900,-27.75972682
1.83950,-15.55195051
1.84000,-0.2922301275
1.84050,16.4934623
1.84100,31.75318268
1.84150,47.62329188
1.84200,72.34403891
1.84250,106.2206182
1.84300,137.6556422
1.84350,153.2205569
1.84400,151.0841961
1.84450,140.0971974
1.84500,128.1946155
1.84550,116.597228
1.84600,103.1686741
1.84650,87.29856488
1.84700,69.59728924
1.84750,52.5064024
1.84800,40.90901491
1.84850,36.6362932
1.84900,31.14279387
1.84950,14.05190703
1.85000,-13.72078407
1.85050,-39.66230872
1.85100,-50.6493074
1.85150,-44.54541924
1.85200,-29.28569886
1.85250,-11.88961762
1.85300,2.75971395
1.85350,11.61035177
1.85400,15.88307348
1.85450,19.85060078
1.85500,28.7012386
1.85550,41.21420932
1.85600,52.81159681
1.85650,61.66223464
1.85700,64.71417871
1.85750,57.38951293
1.85800,39.38304287
1.85850,19.24021197
1.85900,9.168796511
1.85950,12.8311294
1.86000,21.98696163
1.86050,30.22721064
1.86100,37.55187643
1.86150,43.65576458
1.86200,46.70770866
1.86250,45.18173662
1.86300,42.74018136
1.86350,43.04537577
1.86400,43.04537577
1.86450,38.77265406
1.86500,29.61682183
1.86550,18.01943433
1.86600,6.72724125
1.86650,-1.513007758
1.86700,-3.95456302
1.86750,0.3181586879
1.86800,8.253213288
1.86850,17.40904552
1.86900,26.56487775
1.86950,33.58434913
1.87000,36.6362932
1.87050,36.3310988
1.87100,40.6038205
1.87150,52.201208
1.87200,63.79859549
1.87250,65.93495634
1.87300,57.69470734
1.87350,43.65576458
1.87400,27.17526657
1.87450,9.168796511
1.87500,-3.344174205
1.87550,-6.396118282
1.87600,-2.733785389
1.87650,-0.5974245352
1.87700,-0.2922301275
1.87750,5.201269211
1.87800,18.93501756
1.87850,32.05837709
1.87900,38.77265406
1.87950,42.74018136
1.88000,49.45445833
1.88050,56.1687353
1.88100,57.69470734
1.88150,55.25315207
1.88200,52.5064024
1.88250,46.40251425
1.88300,31.44798827
1.88350,8.863602104
1.88400,-13.72078407
1.88450,-34.16880938
1.88500,-54.31164029
1.88550,-71.09733271
1.88600,-77.50641528
1.88650,-72.62330475
1.88700,-65.60383338
1.88750,-62.5518893
1.88800,-56.44800114
1.88850,-39.96750313
1.88900,-18.29870018
1.88950,-3.344174205
1.89000,1.844130726
1.89050,3.98049158
1.89100,3.98049158
1.89150,-1.818202166
1.89200,-10.66883999
1.89250,-10.36364558
1.89300,3.064908357
1.89350,15.88307348
1.89400,14.96749026
1.89450,5.506463619
1.89500,2.149325134
1.89550,8.253213288
1.89600,12.525935
1.89650,8.253213288
1.89700,0.3181586879
1.89750,-3.344174205
1.89800,-2.428590981
1.89850,-2.428590981
1.89900,-6.090923874
1.89950,-13.11039525
1.90000,-19.82467222
1.90050,-22.8766163
1.90100,-21.65583867
1.90150,-16.77272814
1.90200,-9.753256766
1.90250,0.3181586879
1.90300,10.99996296
1.90350,17.10385111
1.90400,16.18826789
1.90450,13.13632381
1.90500,14.35710144
1.90550,17.71423993
1.90600,18.93501756
1.90650,18.32462874
1.90700,19.24021197
1.90750,23.20773927
1.90800,27.17526657
1.90850,29.61682183
1.90900,29.61682183
1.90950,23.51293367
1.91000,10.08437973
1.91050,-5.175340651
1.91100,-15.85714492
1.91150,-19.82467222
1.91200,-21.65583867
1.91250,-23.18181071
1.91300,-23.18181071
1.91350,-22.57142189
1.91400,-25.01297715
1.91450,-30.50647649
1.91500,-34.47400379
1.91550,-33.55842057
1.91600,-29.28569886
1.91650,-23.79219952
1.91700,-16.46753374
1.91750,-8.227284728
1.91800,-1.207813351
1.91850,2.75971395
1.91900,6.422046842
1.91950,10.99996296
1.92000,15.88307348
1.92050,20.766184
1.92100,28.3960442
1.92150,39.68823728
1.92200,50.67523596
1.92250,51.89601359
1.92300,39.07784847
1.92350,16.7986567
1.92400,-3.344174205
1.92450,-13.72078407
1.92500,-14.02597847
1.92550,-12.50000644
1.92600,-17.99350577
1.92650,-33.86361497
1.92700,-54.00644588
1.92750,-63.77266693
1.92800,-54.00644588
1.92850,-31.11686531
1.92900,-11.2792288
1.92950,-0.9026189429
1.93000,10.08437973
1.93050,31.44798827
1.93100,54.64276326
1.93150,63.79859549
1.93200,58.61029056
1.93250,54.94795767
1.93300,60.1362626
1.93350,64.40898431
1.93400,56.4739297
1.93450,40.2986261
1.93500,26.56487775
1.93550,19.85060078
1.93600,17.71423993
1.93650,16.7986567
1.93700,15.27268467
1.93750,9.779185327
1.93800,-1.818202166
1.93850,-15.2467561
1.93900,-25.62336597
1.93950,-32.33764294
1.94000,-37.83114227
1.94050,-44.24022484
1.94100,-50.34411299
1.94150,-54.92202911
1.94200,-52.48047384
1.94250,-35.69478142
1.94300,-5.480535058
1.94350,24.12332249
1.94400,38.16226524
1.94450,35.11032117
1.94500,29.31162742
1.94550,33.27915472
1.94600,42.74018136
1.94650,43.35057017
1.94700,28.3960442
1.94750,7.032435657
1.94800,-6.090923874
1.94850,-6.396118282
1.94900,-1.207813351
1.94950,1.233741911
1.95000,1.538936319
1.95050,2.454519542
1.95100,3.98049158
1.95150,3.064908357
1.95200,1.844130726
1.95250,2.75971395
1.95300,3.675297173
1.95350,-0.9026189429
1.95400,-11.2792288
1.95450,-21.35064426
1.95500,-28.37011564
1.95550,-33.86361497
1.95600,-39.66230872
1.95650,-45.15580806
1.95700,-52.48047384
1.95750,-63.16227811
1.95800,-70.79213831
1.95850,-65.29863897
1.95900,-48.20775214
1.95950,-32.33764294
1.96000,-25.62336597
1.96050,-20.12986663
1.96100,-8.227284728
1.96150,3.370102765
1.96200,5.201269211
1.96250,0.3181586879
1.96300,-1.207813351
1.96350,2.454519542
1.96400,3.98049158
1.96450,1.844130726
1.96500,2.454519542
1.96550,8.863602104
1.96600,16.18826789
1.96650,20.766184
1.96700,25.64929453
1.96750,29.61682183
1.96800,28.7012386
1.96850,26.87007216
1.96900,33.27915472
1.96950,47.31809747
1.97000,53.72718004
1.97050,43.35057017
1.97100,29.92201623
1.97150,31.44798827
1.97200,46.70770866
1.97250,57.69470734
1.97300,52.201208
1.97350,33.58434913
1.97400,10.69476855
1.97450,-8.837673543
1.97500,-19.51947781
1.97550,-15.55195051
1.97600,-3.344174205
1.97650,3.675297173
1.97700,3.064908357
1.97750,7.94801888
1.97800,29.92201623
1.97850,62.27262345
1.97900,83.63623199
1.97950,83.63623199
1.98000,71.73365009
1.98050,62.57781786
1.98100,59.52587378
1.98150,54.94795767
1.98200,42.43498695
1.98250,21.37657282
1.98300,-4.259757428
1.98350,-32.94803175
1.98400,-61.02591726
1.98450,-85.13627547
1.98500,-105.2791064
1.98550,-120.2336324
1.98600,-126.6427149
1.98650,-122.3699932
1.98700,-113.214161
1.98750,-108.6362449
1.98800,-105.8894952
1.98850,-94.59730211
1.98900,-72.92849916
1.98950,-53.70125148
1.99000,-46.07139128
1.99050,-44.54541924
1.99100,-42.40905839
1.99150,-40.88308635
1.99200,-39.66230872
1.99250,-27.45453241
1.99300,-0.2922301275
1.99350,25.95448893
1.99400,36.6362932
1.99450,38.77265406
1.99500,47.92848629
1.99550,57.69470734
1.99600,46.40251425
1.99650,13.13632381
1.99700,-16.46753374
1.99750,-24.70778274
1.99800,-18.60389459
1.99850,-11.2792288
1.99900,-5.480535058
1.99950,-1.818202166
2.00000,-5.785729466
2.00050,-16.77272814
2.00100,-21.65583867
2.00150,-13.41558966
2.00200,-3.649368612
2.00250,-7.311701505
2.00300,-22.57142189
2.00350,-36.61036464
2.00400,-43.62983602
2.00450,-44.85061365
2.00500,-43.62983602
2.00550,-40.57789194
2.00600,-35.99997583
2.00650,-30.50647649
2.00700,-23.18181071
2.00750,-16.77272814
2.00800,-13.41558966
2.00850,-10.66883999
2.00900,-4.870146243
2.00950,1.233741911
2.01000,2.149325134
2.01050,-2.428590981
2.01100,-8.227284728
2.01150,-17.99350577
2.01200,-38.7467255
2.01250,-64.38305574
2.01300,-74.4544712
2.01350,-57.97397318
2.01400,-25.62336597
2.01450,2.75971395
2.01500,19.54540637
2.01550,28.7012386
2.01600,38.77265406
2.01650,56.77912411
2.01700,82.41545436
2.01750,104.9998405
2.01800,110.1881455
2.01850,95.23361948
2.01900,73.87001094
2.01950,57.08431852
2.02000,41.82459814
2.02050,20.4609896
2.02100,-4.870146243
2.02150,-25.31817156
2.02200,-34.7791982
2.02250,-36.91555905
2.02300,-37.22075346
2.02350,-40.27269754
2.02400,-47.90255773
2.02450,-58.88955641
2.02500,-66.82461101
2.02550,-69.26616627
2.02600,-71.40252712
2.02650,-76.89602646
2.02700,-82.08433139
2.02750,-78.4219985
2.02800,-66.82461101
2.02850,-57.36358437
2.02900,-55.53241792
2.02950,-55.53241792
2.03000,-50.34411299
2.03050,-42.40905839
2.03100,-35.99997583
2.03150,-28.67531004
2.03200,-16.77272814
2.03250,-6.396118282
2.03300,-9.753256766
2.03350,-27.45453241
2.03400,-44.85061365
2.03450,-50.6493074
2.03500,-46.6817801
2.03550,-40.88308635
2.03600,-37.83114227
2.03650,-38.44153109
2.03700,-44.54541924
2.03750,-54.92202911
2.03800,-63.16227811
2.03850,-65.29863897
2.03900,-63.77266693
2.03950,-61.02591726
2.04000,-54.31164029
2.04050,-43.93503043
2.04100,-38.13633668
2.04150,-40.57789194
2.04200,-43.32464161
2.04250,-37.22075346
2.04300,-26.53894919
2.04350,-19.21428341
2.04400,-14.02597847
2.04450,-4.870146243
2.04500,1.538936319
2.04550,-4.259757428
2.04600,-16.77272814
2.04650,-15.55195051
2.04700,5.811658027
2.04750,29.61682183
2.04800,35.72070998
2.04850,25.34410012
2.04900,11.91554618
2.04950,0.3181586879
2.05000,-12.19481203
2.05050,-21.96103307
2.05100,-19.82467222
2.05150,-4.870146243
2.05200,11.30515737
2.05250,19.54540637
2.05300,24.12332249
2.05350,35.41551557
2.05400,53.42198563
2.05450,65.93495634
2.05500,63.49340108
2.05550,50.98043037
2.05600,41.21420932
2.05650,40.2986261
2.05700,41.82459814
2.05750,36.02590439
2.05800,22.59735045
2.05850,9.473990919
2.05900,2.454519542
2.05950,0.9285475033
2.06000,-0.2922301275
2.06050,-4.564951835
2.06100,-9.142867951
2.06150,-11.88961762
2.06200,-17.38311696
2.06250,-31.42205971
2.06300,-54.00644588
2.06350,-73.53888798
2.06400,-78.4219985
2.06450,-70.18174949
2.06500,-61.02591726
2.06550,-57.66877878
2.06600,-56.75319555
2.06650,-53.70125148
2.06700,-50.34411299
2.06750,-47.59736332
2.06800,-43.01944721
2.06850,-35.69478142
2.06900,-32.33764294
2.06950,-37.52594787
2.07000,-43.93503043
2.07050,-41.18828076
2.07100,-30.50647649
2.07150,-23.79219952
2.07200,-24.09739393
2.07250,-21.96103307
2.07300,-7.92209032
2.07350,11.30515737
2.07400,21.07137841
2.07450,14.96749026
2.07500,0.3181586879
2.07550,-11.88961762
2.07600,-17.68831137
2.07650,-22.8766163
2.07700,-33.86361497
2.07750,-50.95450181
2.07800,-65.29863897
2.07850,-68.04538864
2.07900,-55.83761233
2.07950,-34.7791982
2.08000,-12.50000644
2.08050,3.98049158
2.08100,13.44151822
2.08150,21.98696163
2.08200,39.68823728
2.08250,67.46092838
2.08300,92.79206422
2.08350,101.642702
2.08400,95.23361948
2.08450,85.46739844
2.08500,76.61676061
2.08550,62.57781786
2.08600,41.82459814
2.08650,22.29215604
2.08700,7.94801888
2.08750,-5.480535058
2.08800,-18.909089
2.08850,-19.82467222
2.08900,-2.733785389
2.08950,20.766184
2.09000,33.58434913
2.09050,31.75318268
2.09100,24.12332249
2.09150,16.7986567
2.09200,4.285685988
2.09250,-18.29870018
2.09300,-49.12333536
2.09350,-76.89602646
2.09400,-90.62977481
2.09450,-90.3245804
2.09500,-88.18821955
2.09550,-95.20769092
2.09600,-105.2791064
2.09650,-100.0908014
2.09700,-73.84408238
2.09750,-44.54541924
2.09800,-30.20128208
2.09850,-25.62336597
2.09900,-10.9740344
2.09950,18.01943433
2.10000,43.96095899
2.10050,50.67523596
2.10100,44.2661534
2.10150,41.51940373
2.10200,44.2661534
2.10250,41.21420932
2.10300,26.87007216
2.10350,12.525935
2.10400,4.896074803
2.10450,-4.564951835
2.10500,-24.40258834
2.10550,-42.10386398
2.10600,-40.27269754
2.10650,-24.70778274
2.10700,-17.99350577
2.10750,-25.92856037
2.10800,-31.11686531
2.10850,-24.09739393
2.10900,-19.82467222
2.10950,-30.50647649
2.11000,-44.54541924
2.11050,-45.15580806
2.11100,-39.05191991
2.11150,-42.40905839
2.11200,-50.95450181
2.11250,-44.54541924
2.11300,-17.38311696
2.11350,12.8311294
2.11400,33.88954354
2.11450,49.45445833
2.11500,66.24015075
2.11550,79.9738991
2.11600,82.72064877
2.11650,77.53234384
2.11700,73.56481654
2.11750,74.17520535
2.11800,71.73365009
2.11850,59.22067937
2.11900,38.77265406
2.11950,21.68176723
2.12000,15.27268467
2.12050,11.61035177
2.12100,-1.818202166
2.12150,-27.75972682
2.12200,-55.83761233
2.12250,-77.81160968
2.12300,-94.2921077
2.12350,-100.3959959
2.12400,-87.88302514
2.12450,-61.63630608
2.12500,-43.01944721
2.12550,-44.85061365
2.12600,-55.22722351
2.12650,-55.22722351
2.12700,-46.98697451
2.12750,-44.24022484
2.12800,-46.6817801
2.12850,-41.79866957
2.12900,-28.98050445
2.12950,-18.60389459
2.13000,-9.753256766
2.13050,10.99996296
2.13100,45.48693103
2.13150,76.0063718
2.13200,88.21414811
2.13250,87.29856488
2.13300,81.49987114
2.13350,70.81806687
2.13400,55.55834648
2.13450,44.5713478
2.13500,43.35057017
2.13550,42.74018136
2.13600,33.58434913
2.13650,20.15579519
2.13700,11.61035177
2.13750,6.72724125
2.13800,0.3181586879
2.13850,-3.038979797
2.13900,3.370102765
2.13950,15.27268467
2.14000,21.98696163
2.14050,20.4609896
2.14100,15.88307348
2.14150,8.253213288
2.14200,-5.785729466
2.14250,-22.57142189
2.14300,-32.03244853
2.14350,-31.42205971
2.14400,-29.89608767
2.14450,-34.7791982
2.14500,-42.40905839
2.14550,-45.46100247
2.14600,-43.32464161
2.14650,-40.88308635
2.14700,-36.91555905
2.14750,-23.79219952
2.14800,3.98049158
2.14850,38.77265406
2.14900,62.57781786
2.14950,65.93495634
2.15000,58.30509615
2.15050,57.38951293
2.15100,68.68170601
2.15150,80.58428791
2.15200,81.49987114
2.15250,76.0063718
2.15300,77.83753824
2.15350,92.18167541
2.15400,108.6621734
2.15450,112.6297007
2.15500,101.9478965
2.15550,85.16220403
2.15600,72.0388445
2.15650,60.74665141
2.15700,42.43498695
2.15750,13.74671263
2.15800,-16.77272814
2.15850,-38.7467255
2.15900,-48.81814095
2.15950,-50.95450181
2.16000,-45.76619688
2.16050,-30.20128208
2.16100,-10.05845117
2.16150,1.538936319
2.16200,0.3181586879
2.16250,-4.870146243
2.16300,-2.428590981
2.16350,5.506463619
2.16400,6.72724125
2.16450,-6.090923874
2.16500,-29.59089327
2.16550,-53.39605707
2.16600,-69.57136068
2.16650,-72.92849916
2.16700,-60.72072285
2.16750,-35.69478142
2.16800,-7.311701505
2.16850,14.96749026
2.16900,28.09084979
2.16950,36.02590439
2.17000,38.16226524
2.17050,26.56487775
2.17100,-3.649368612
2.17150,-43.01944721
2.17200,-71.09733271
2.17250,-81.77913698
2.17300,-84.83108106
2.17350,-90.01938599
2.17400,-93.37652448
2.17450,-92.15574685
2.17500,-95.51288533
2.17550,-109.5518281
2.17600,-119.9284379
2.17650,-108.025856
2.17700,-76.89602646
2.17750,-47.59736332
2.17800,-27.75972682
2.17850,-7.92209032
2.17900,15.88307348
2.17950,36.02590439
2.18000,48.84406951
2.18050,61.35704023
2.18100,72.34403891
2.18150,70.81806687
2.18200,56.4739297
2.18250,45.48693103
2.18300,45.79212544
2.18350,45.79212544
2.18400,32.97396031
2.18450,15.57787907
2.18500,4.896074803
2.18550,-0.2922301275
2.18600,-5.480535058
2.18650,-2.428590981
2.18700,14.35710144
2.18750,32.3635715
2.18800,31.14279387
2.18850,10.69476855
2.18900,-11.58442321
2.18950,-27.14933801
2.19000,-37.22075346
2.19050,-41.49347517
2.19100,-37.22075346
2.19150,-30.20128208
2.19200,-32.03244853
2.19250,-39.05191991
2.19300,-37.22075346
2.19350,-23.18181071
2.19400,-10.9740344
2.19450,-8.227284728
2.19500,-5.480535058
2.19550,6.116852434
2.19600,18.62982315
2.19650,17.40904552
2.19700,2.75971395
2.19750,-11.2792288
2.19800,-17.38311696
2.19850,-17.38311696
2.19900,-16.16233933
2.19950,-14.33117288
2.20000,-9.448062359
2.20050,0.01296428019
2.20100,10.69476855
2.20150,14.96749026
2.20200,8.253213288
2.20250,0.01296428019
2.20300,2.454519542
2.20350,15.88307348
2.20400,24.4285169
2.20450,20.15579519
2.20500,12.8311294
2.20550,13.44151822
2.20600,18.62982315
2.20650,18.93501756
2.20700,14.05190703
2.20750,10.38957414
2.20800,9.779185327
2.20850,9.473990919
2.20900,7.94801888
2.20950,7.032435657
2.21000,6.72724125
2.21050,7.337630065
2.21100,10.69476855
2.21150,17.10385111
2.21200,24.4285169
2.21250,29.31162742
2.21300,29.92201623
2.21350,24.7337113
2.21400,16.7986567
2.21450,15.27268467
2.21500,25.64929453
2.21550,38.16226524
2.21600,36.02590439
2.21650,19.24021197
2.21700,6.72724125
2.21750,12.22074059
2.21800,27.78565538
2.21850,38.46745965
2.21900,42.12979254
2.21950,43.04537577
2.22000,39.68823728
2.22050,28.7012386
2.22100,16.18826789
2.22150,12.525935
2.22200,17.40904552
2.22250,24.4285169
2.22300,33.58434913
2.22350,50.67523596
2.22400,76.31156621
2.22450,101.9478965
2.22500,119.0387833
2.22550,125.7530603
2.22600,122.7011162
2.22650,110.7985343
2.22700,92.48686981
2.22750,74.78559417
2.22800,62.27262345
2.22850,57.08431852
2.22900,57.08431852
2.22950,56.77912411
2.23000,50.06484714
2.23050,34.19473794
2.23100,11.91554618
2.23150,-10.66883999
2.23200,-30.50647649
2.23250,-43.01944721
2.23300,-41.79866957
2.23350,-23.18181071
2.23400,4.285685988
2.23450,23.51293367
2.23500,23.51293367
2.23550,7.642824473
2.23600,-12.19481203
2.23650,-27.14933801
2.23700,-34.7791982
2.23750,-37.52594787
2.23800,-38.44153109
2.23850,-37.52594787
2.23900,-33.55842057
2.23950,-29.59089327
2.24000,-35.08439261
2.24050,-56.14280674
2.24100,-85.13627547
2.24150,-106.499884
2.24200,-116.8764939
2.24250,-122.6751876
2.24300,-126.0323261
2.24350,-115.6557162
2.24400,-82.08433139
2.24450,-33.86361497
2.24500,11.30515737
2.24550,39.38304287
2.24600,46.40251425
2.24650,34.49993235
2.24700,16.18826789
2.24750,10.08437973
2.24800,23.81812808
2.24850,42.43498695
2.24900,45.48693103
2.24950,32.97396031
2.25000,21.98696163
2.25050,21.37657282
2.25100,21.07137841
2.25150,10.99996296
2.25200,-0.5974245352
2.25250,-0.5974245352
2.25300,10.69476855
2.25350,21.37657282
2.25400,23.81812808
2.25450,20.15579519
2.25500,13.74671263
2.25550,4.896074803
2.25600,-3.95456302
2.25650,-7.311701505
2.25700,-8.837673543
2.25750,-21.96103307
2.25800,-51.87008503
2.25850,-82.69472021
2.25900,-93.37652448
2.25950,-82.69472021
2.26000,-68.96097186
2.26050,-64.07786134
2.26100,-61.94150048
2.26150,-53.09086266
2.26200,-34.7791982
2.26250,-8.532479135
2.26300,22.90254486
2.26350,53.11679122
2.26400,67.15573397
2.26450,60.74665141
2.26500,46.09731984
2.26550,39.07784847
2.26600,40.90901491
2.26650,41.21420932
2.26700,35.41551557
2.26750,27.17526657
2.26800,20.4609896
2.26850,14.05190703
2.26900,9.473990919
2.26950,10.99996296
2.27000,20.4609896
2.27050,34.49993235
2.27100,49.75965274
2.27150,63.79859549
2.27200,73.87001094
2.27250,76.31156621
2.27300,71.42845568
2.27350,61.66223464
2.27400,44.5713478
2.27450,18.01943433
2.27500,-13.11039525
2.27550,-39.35711431
2.27600,-55.83761233
2.27650,-65.60383338
2.27700,-69.57136068
2.27750,-64.07786134
2.27800,-49.42852977
2.27850,-35.69478142
2.27900,-31.42205971
2.27950,-35.99997583
2.28000,-42.10386398
2.28050,-42.10386398
2.28100,-32.94803175
2.28150,-18.909089
2.28200,-9.448062359
2.28250,-10.9740344
2.28300,-16.46753374
2.28350,-18.909089
2.28400,-23.18181071
2.28450,-35.69478142
2.28500,-46.07139128
2.28550,-41.49347517
2.28600,-28.98050445
2.28650,-27.75972682
2.28700,-34.16880938
2.28750,-23.79219952
2.28800,5.506463619
2.28850,25.95448893
2.28900,22.90254486
2.28950,19.85060078
2.29000,38.77265406
2.29050,61.66223464
2.29100,58.61029056
2.29150,32.05837709
2.29200,8.558407696
2.29250,-0.5974245352
2.29300,-0.5974245352
2.29350,11.91554618
2.29400,42.12979254
2.29450,70.81806687
2.29500,70.51287246
2.29550,44.5713478
2.29600,25.03890571
2.29650,28.7012386
2.29700,42.12979254
2.29750,44.5713478
2.29800,34.80512676
2.29850,22.29215604
2.29900,14.05190703
2.29950,16.18826789
2.30000,30.53240505
2.30050,45.48693103
2.30100,42.74018136
2.30150,18.93501756
2.30200,-7.311701505
2.30250,-16.46753374
2.30300,-4.564951835
2.30350,19.85060078
2.30400,46.70770866
2.30450,66.85053957
2.30500,74.48039976
2.30550,74.17520535
2.30600,75.39598298
2.30650,82.41545436
2.30700,89.74012014
2.30750,91.57128659
2.30800,89.43492574
2.30850,86.99337048
2.30900,81.19467673
2.30950,69.90248364
2.31000,57.99990174
2.31050,53.11679122
2.31100,52.201208
2.31150,43.96095899
2.31200,21.98696163
2.31250,-7.311701505
2.31300,-34.16880938
2.31350,-53.70125148
2.31400,-66.82461101
2.31450,-75.06486001
2.31500,-79.03238731
2.31550,-79.64277613
2.31600,-75.67524883
2.31650,-66.82461101
2.31700,-57.05838996
2.31750,-54.00644588
2.31800,-57.97397318
2.31850,-58.584362
2.31900,-49.12333536
2.31950,-36.91555905
2.32000,-32.94803175
2.32050,-35.08439261
2.32100,-30.8116709
2.32150,-13.41558966
2.32200,10.08437973
2.32250,31.14279387
2.32300,43.96095899
2.32350,42.74018136
2.32400,24.4285169
2.32450,-1.818202166
2.32500,-22.26622748
2.32550,-32.33764294
2.32600,-39.66230872
2.32650,-49.42852977
2.32700,-56.44800114
2.32750,-59.19475081
2.32800,-62.85708371
2.32850,-68.96097186
2.32900,-67.74019423
2.32950,-53.39605707
2.33000,-35.99997583
2.33050,-27.14933801
2.33100,-25.62336597
2.33150,-21.04544985
2.33200,-11.58442321
2.33250,-0.5974245352
2.33300,8.558407696
2.33350,16.18826789
2.33400,20.15579519
2.33450,21.98696163
2.33500,27.78565538
2.33550,37.24668202
2.33600,40.2986261
2.33650,29.92201623
2.33700,16.7986567
2.33750,14.66229585
2.33800,21.37657282
2.33850,25.95448893
2.33900,29.61682183
2.33950,47.62329188
2.34000,83.9414264
2.34050,122.3959218
2.34100,144.6751135
2.34150,148.3374464
2.34200,141.0127806
2.34250,127.8894211
2.34300,108.6621734
2.34350,85.16220403
2.34400,60.74665141
2.34450,39.07784847
2.34500,21.68176723
2.34550,9.168796511
2.34600,-0.2922301275
2.34650,-10.66883999
2.34700,-24.09739393
2.34750,-41.49347517
2.34800,-60.11033404
2.34850,-71.09733271
2.34900,-67.12980541
2.34950,-53.09086266
2.35000,-43.93503043
2.35050,-49.12333536
2.35100,-60.11033404
2.35150,-61.33111167
2.35200,-47.90255773
2.35250,-28.06492123
2.35300,-10.05845117
2.35350,2.454519542
2.35400,9.779185327
2.35450,12.525935
2.35500,14.66229585
2.35550,12.22074059
2.35600,-3.344174205
2.35650,-27.45453241
2.35700,-33.86361497
2.35750,-3.95456302
2.35800,38.77265406
2.35850,50.67523596
2.35900,24.7337113
2.35950,0.9285475033
2.36000,10.69476855
2.36050,38.16226524
2.36100,53.72718004
2.36150,58.91548497
2.36200,74.78559417
2.36250,97.67517474
2.36300,100.7271188
2.36350,77.83753824
2.36400,52.201208
2.36450,38.77265406
2.36500,23.81812808
2.36550,-5.785729466
2.36600,-37.83114227
2.36650,-49.73372418
2.36700,-38.44153109
2.36750,-20.74025544
2.36800,-10.36364558
2.36850,-7.006507097
2.36900,-4.259757428
2.36950,3.98049158
2.37000,16.7986567
2.37050,23.81812808
2.37100,14.66229585
2.37150,-7.006507097
2.37200,-25.62336597
2.37250,-31.42205971
2.37300,-29.89608767
2.37350,-29.89608767
2.37400,-32.03244853
2.37450,-31.11686531
2.37500,-25.62336597
2.37550,-17.07792255
2.37600,-9.753256766
2.37650,-7.616895912
2.37700,-14.02597847
2.37750,-27.45453241
2.37800,-43.32464161
2.37850,-60.41552844
2.37900,-75.98044324
2.37950,-82.99991461
2.38000,-74.75966561
2.38050,-55.83761233
2.38100,-37.22075346
2.38150,-23.48700511
2.38200,-10.66883999
2.38250,0.6233530956
2.38300,7.337630065
2.38350,11.61035177
2.38400,21.68176723
2.38450,35.41551557
2.38500,37.55187643
2.38550,21.37657282
2.38600,-0.9026189429
2.38650,-15.85714492
2.38700,-25.01297715
2.38750,-36.30517024
2.38800,-46.37658569
2.38850,-43.32464161
2.38900,-27.75972682
2.38950,-15.2467561
2.39000,-14.33117288
2.39050,-16.77272814
2.39100,-8.227284728
2.39150,9.779185327
2.39200,23.81812808
2.39250,24.7337113
2.39300,17.10385111
2.39350,9.473990919
2.39400,7.032435657
2.39450,11.61035177
2.39500,22.29215604
2.39550,32.3635715
2.39600,32.3635715
2.39650,19.24021197
2.39700,0.9285475033
2.39750,-15.85714492
2.39800,-31.11686531
2.39850,-42.10386398
2.39900,-41.49347517
2.39950,-29.28569886
2.40000,-23.18181071
2.40050,-34.7791982
2.40100,-49.73372418
2.40150,-43.93503043
2.40200,-17.99350577
2.40250,3.064908357
2.40300,4.285685988
2.40350,-2.733785389
2.40400,-4.564951835
2.40450,-2.123396574
2.40500,-2.733785389
2.40550,-4.259757428
2.40600,-3.95456302
2.40650,-3.038979797
2.40700,-1.207813351
2.40750,6.422046842
2.40800,20.4609896
2.40850,30.22721064
2.40900,28.09084979
2.40950,19.24021197
2.41000,10.99996296
2.41050,3.370102765
2.41100,-3.649368612
2.41150,-4.259757428
2.41200,5.201269211
2.41250,18.93501756
2.41300,32.05837709
2.41350,45.18173662
2.41400,54.33756885
2.41450,47.01290307
2.41500,20.766184
2.41550,-7.92209032
2.41600,-22.8766163
2.41650,-26.8441436
2.41700,-32.33764294
2.41750,-36.61036464
2.41800,-26.23375478
2.41850,1.844130726
2.41900,36.94148761
2.41950,67.76612279
2.42000,86.68817607
2.42050,85.77259284
2.42100,66.54534516
2.42150,46.40251425
2.42200,44.5713478
2.42250,55.25315207
2.42300,52.201208
2.42350,23.20773927
2.42400,-15.85714492
2.42450,-44.54541924
2.42500,-61.94150048
2.42550,-80.86355376
2.42600,-106.499884
2.42650,-130.9154366
2.42700,-144.3439906
2.42750,-144.0387962
2.42800,-132.7466031
2.42850,-115.9609106
2.42900,-98.56482941
2.42950,-79.94797054
2.43000,-55.22722351
2.43050,-23.18181071
2.43100,11.30515737
2.43150,42.43498695
2.43200,64.40898431
2.43250,74.17520535
2.43300,75.39598298
2.43350,77.83753824
2.43400,87.60375929
2.43450,96.45439711
2.43500,93.09725863
2.43550,79.36351028
2.43600,71.42845568
2.43650,76.92195502
2.43700,90.04531455
2.43750,101.642702
2.43800,110.7985343
2.43850,114.4608672
2.43900,102.2530909
2.43950,69.29209483
2.44000,27.78565538
2.44050,-4.870146243
2.44100,-26.53894919
2.44150,-49.42852977
2.44200,-85.44146988
2.44250,-129.3894646
2.44300,-160.5192942
2.44350,-160.5192942
2.44400,-129.694659
2.44450,-88.18821955
2.44500,-56.75319555
2.44550,-40.27269754
2.44600,-27.45453241
2.44650,-11.2792288
2.44700,4.285685988
2.44750,11.30515737
2.44800,4.896074803
2.44850,-12.80520084
2.44900,-32.94803175
2.44950,-39.66230872
2.45000,-27.14933801
2.45050,-9.753256766
2.45100,-10.66883999
2.45150,-31.42205971
2.45200,-48.51294654
2.45250,-43.32464161
2.45300,-21.96103307
2.45350,-3.649368612
2.45400,1.844130726
2.45450,1.233741911
2.45500,2.75971395
2.45550,7.94801888
2.45600,16.18826789
2.45650,25.03890571
2.45700,32.97396031
2.45750,39.07784847
2.45800,43.65576458
2.45850,47.01290307
2.45900,47.62329188
2.45950,43.35057017
2.46000,31.75318268
2.46050,11.30515737
2.46100,-13.72078407
2.46150,-33.86361497
2.46200,-42.10386398
2.46250,-43.93503043
2.46300,-48.51294654
2.46350,-53.09086266
2.46400,-43.01944721
2.46450,-12.50000644
2.46500,23.51293367
2.46550,46.09731984
2.46600,47.31809747
2.46650,35.72070998
2.46700,25.95448893
2.46750,28.09084979
2.46800,43.96095899
2.46850,65.01937312
2.46900,80.58428791
2.46950,88.82453692
2.47000,97.36998034
2.47050,112.6297007
2.47100,127.2790323
2.47150,129.7205876
2.47200,116.597228
2.47250,97.36998034
2.47300,82.41545436
2.47350,76.0063718
2.47400,74.17520535
2.47450,69.90248364
2.47500,56.77912411
2.47550,32.97396031
2.47600,1.538936319
2.47650,-32.64283734
2.47700,-70.4869439
2.47750,-114.4349386
2.47800,-161.4348774
2.47850,-199.8893728
2.47900,-218.2010372
2.47950,-216.0646764
2.48000,-201.7205392
2.48050,-181.5777083
2.48100,-157.7725445
2.48150,-133.6621863
2.48200,-110.7726057
2.48250,-83.91549784
2.48300,-47.90255773
2.48350,-11.88961762
2.48400,7.337630065
2.48450,9.473990919
2.48500,13.13632381
2.48550,27.17526657
2.48600,37.55187643
2.48650,28.7012386
2.48700,7.642824473
2.48750,-7.616895912
2.48800,-12.80520084
2.48850,-14.63636729
2.48900,-12.80520084
2.48950,-4.564951835
2.49000,0.3181586879
2.49050,-10.9740344
2.49100,-29.59089327
2.49150,-32.03244853
2.49200,-10.05845117
2.49250,17.40904552
2.49300,29.31162742
2.49350,23.81812808
2.49400,15.27268467
2.49450,17.10385111
2.49500,35.72070998
2.49550,64.71417871
2.49600,85.77259284
2.49650,79.66870469
2.49700,46.70770866
2.49750,10.69476855
2.49800,-8.837673543
2.49850,-15.2467561
2.49900,-23.18181071
2.49950,-37.83114227
2.50000,-49.12333536
2.50050,-50.03891858
2.50100,-44.85061365
2.50150,-38.7467255
2.50200,-24.70778274
2.50250,8.863602104
2.50300,60.74665141
2.50350,110.1881455
2.50400,134.6036981
2.50450,127.5842267
2.50500,100.7271188
2.50550,69.29209483
2.50600,40.2986261
2.50650,11.61035177
2.50700,-21.04544985
2.50750,-57.97397318
2.50800,-89.71419158
2.50850,-106.8050784
2.50900,-108.3310505
2.50950,-101.9219679
2.51000,-90.93496921
2.51050,-71.09733271
2.51100,-41.79866957
2.51150,-14.02597847
2.51200,1.844130726
2.51250,10.69476855
2.51300,21.37657282
2.51350,31.14279387
2.51400,28.7012386
2.51450,14.35710144
2.51500,0.01296428019
2.51550,-11.88961762
2.51600,-29.89608767
2.51650,-59.19475081
2.51700,-90.01938599
2.51750,-110.4674113
2.51800,-119.0128547
2.51850,-119.6232435
2.51900,-113.5193554
2.51950,-101.0063847
2.52000,-84.22069225
2.52050,-60.11033404
2.52100,-23.18181071
2.52150,22.29215604
2.52200,57.08431852
2.52250,66.54534516
2.52300,56.4739297
2.52350,43.96095899
2.52400,38.46745965
2.52450,37.55187643
2.52500,35.72070998
2.52550,28.7012386
2.52600,15.27268467
2.52650,1.538936319
2.52700,-5.175340651
2.52750,-7.006507097
2.52800,-14.33117288
2.52850,-24.09739393
2.52900,-20.43506104
2.52950,-0.2922301275
2.53000,16.18826789
2.53050,12.8311294
2.53100,0.6233530956
2.53150,-0.5974245352
2.53200,5.506463619
2.53250,4.285685988
2.53300,-4.259757428
2.53350,-9.753256766
2.53400,-11.2792288
2.53450,-16.46753374
2.53500,-19.51947781
2.53550,-8.532479135
2.53600,10.99996296
2.53650,21.07137841
2.53700,19.24021197
2.53750,21.07137841
2.53800,33.88954354
2.53850,41.82459814
2.53900,25.64929453
2.53950,-13.72078407
2.54000,-56.44800114
2.54050,-76.59083205
2.54100,-61.33111167
2.54150,-22.8766163
2.54200,7.337630065
2.54250,11.30515737
2.54300,3.064908357
2.54350,5.506463619
2.54400,19.85060078
2.54450,28.7012386
2.54500,27.48046097
2.54550,27.48046097
2.54600,32.97396031
2.54650,37.85707084
2.54700,40.90901491
2.54750,47.31809747
2.54800,54.03237444
2.54850,49.75965274
2.54900,35.41551557
2.54950,30.83759946
2.55000,46.09731984
2.55050,67.76612279
2.55100,75.70117739
2.55150,65.01937312
2.55200,46.70770866
2.55250,30.83759946
2.55300,18.62982315
2.55350,7.94801888
2.55400,-3.649368612
2.55450,-15.85714492
2.55500,-25.92856037
2.55550,-29.89608767
2.55600,-26.53894919
2.55650,-18.29870018
2.55700,-9.142867951
2.55750,-1.207813351
2.55800,4.590880396
2.55850,5.201269211
2.55900,-4.870146243
2.55950,-25.31817156
2.56000,-45.46100247
2.56050,-54.92202911
2.56100,-56.44800114
2.56150,-58.584362
2.56200,-58.88955641
2.56250,-44.85061365
2.56300,-17.99350577
2.56350,0.3181586879
2.56400,-3.344174205
2.56450,-11.2792288
2.56500,0.9285475033
2.56550,30.83759946
2.56600,51.59081918
2.56650,50.98043037
2.56700,45.18173662
2.56750,51.89601359
2.56800,69.90248364
2.56850,89.74012014
2.56900,112.0193119
2.56950,137.9608366
2.57000,154.4413346
2.57050,145.5906968
2.57100,112.3245063
2.57150,72.64923331
2.57200,37.24668202
2.57250,3.98049158
2.57300,-29.59089327
2.57350,-54.31164029
2.57400,-61.94150048
2.57450,-58.27916759
2.57500,-58.27916759
2.57550,-65.90902778
2.57600,-73.53888798
2.57650,-76.28563765
2.57700,-79.03238731
2.57750,-84.83108106
2.57800,-85.13627547
2.57850,-69.26616627
2.57900,-41.79866957
2.57950,-19.51947781
2.58000,-13.72078407
2.58050,-16.46753374
2.58100,-13.11039525
2.58150,-1.207813351
2.58200,8.253213288
2.58250,9.779185327
2.58300,10.08437973
2.58350,19.24021197
2.58400,32.3635715
2.58450,37.55187643
2.58500,30.83759946
2.58550,21.68176723
2.58600,18.01943433
2.58650,15.88307348
2.58700,5.201269211
2.58750,-16.46753374
2.58800,-42.10386398
2.58850,-58.584362
2.58900,-56.75319555
2.58950,-37.83114227
2.59000,-17.68831137
2.59050,-14.9415617
2.59100,-28.67531004
2.59150,-41.18828076
2.59200,-42.10386398
2.59250,-43.93503043
2.59300,-63.46747252
2.59350,-91.24016362
2.59400,-98.87002382
2.59450,-70.79213831
2.59500,-22.26622748
2.59550,15.57787907
2.59600,28.09084979
2.59650,25.34410012
2.59700,29.31162742
2.59750,47.92848629
2.59800,69.59728924
2.59850,79.9738991
2.59900,77.53234384
2.59950,73.87001094
2.60000,75.39598298
2.60050,79.36351028
2.60100,81.80506554
2.60150,83.9414264
2.60200,85.16220403
2.60250,82.41545436
2.60300,78.75312147
2.60350,80.88948232
2.60400,85.77259284
2.60450,77.22714943
2.60500,48.2336807
2.60550,15.57787907
2.60600,-0.9026189429
2.60650,-5.480535058
2.60700,-14.33117288
2.60750,-29.59089327
2.60800,-34.47400379
2.60850,-21.65583867
2.60900,-5.175340651
2.60950,-2.733785389
2.61000,-14.63636729
2.61050,-30.50647649
2.61100,-43.62983602
2.61150,-55.22722351
2.61200,-64.68825015
2.61250,-69.26616627
2.61300,-67.43499982
2.61350,-58.27916759
2.61400,-42.40905839
2.61450,-18.60389459
2.61500,9.473990919
2.61550,32.3635715
2.61600,38.46745965
2.61650,26.56487775
2.61700,7.94801888
2.61750,-5.480535058
2.61800,-16.46753374
2.61850,-32.33764294
2.61900,-46.07139128
2.61950,-37.22075346
2.62000,-1.513007758
2.62050,40.2986261
2.62100,64.71417871
2.62150,68.98690042
2.62200,64.1037899
2.62250,55.55834648
2.62300,43.65576458
2.62350,34.19473794
2.62400,31.44798827
2.62450,31.75318268
2.62500,30.83759946
2.62550,36.02590439
2.62600,54.94795767
2.62650,82.72064877
2.62700,105.9154238
2.62750,116.597228
2.62800,113.5452839
2.62850,96.75959152
2.62900,72.95442772
2.62950,56.77912411
2.63000,56.77912411
2.63050,63.18820667
2.63100,62.27262345
2.63150,53.42198563
2.63200,43.04537577
2.63250,33.27915472
2.63300,25.95448893
2.63350,28.3960442
2.63400,40.2986261
2.63450,46.70770866
2.63500,35.11032117
2.63550,13.44151822
2.63600,-1.818202166
2.63650,-9.448062359
2.63700,-19.21428341
2.63750,-32.03244853
2.63800,-40.88308635
2.63850,-46.37658569
2.63900,-54.00644588
2.63950,-61.33111167
2.64000,-61.33111167
2.64050,-53.70125148
2.64100,-43.62983602
2.64150,-27.75972682
2.64200,-1.818202166
2.64250,23.81812808
2.64300,31.75318268
2.64350,17.10385111
2.64400,-4.870146243
2.64450,-20.43506104
2.64500,-28.98050445
2.64550,-35.99997583
2.64600,-41.18828076
2.64650,-39.66230872
2.64700,-27.45453241
2.64750,-3.038979797
2.64800,29.00643301
2.64850,57.08431852
2.64900,67.15573397
2.64950,58.30509615
2.65000,39.38304287
2.65050,18.93501756
2.65100,-0.5974245352
2.65150,-15.85714492
2.65200,-18.909089
2.65250,-9.753256766
2.65300,1.233741911
2.65350,4.285685988
2.65400,0.01296428019
2.65450,-5.785729466
2.65500,-11.58442321
2.65550,-19.21428341
2.65600,-28.67531004
2.65650,-37.22075346
2.65700,-44.24022484
2.65750,-50.6493074
2.65800,-53.09086266
2.65850,-45.46100247
2.65900,-27.14933801
2.65950,-9.142867951
2.66000,-5.175340651
2.66050,-14.63636729
2.66100,-23.18181071
2.66150,-19.21428341
2.66200,-7.92209032
2.66250,-5.175340651
2.66300,-17.38311696
2.66350,-37.83114227
2.66400,-57.05838996
2.66450,-68.65577745
2.66500,-69.26616627
2.66550,-57.36358437
2.66600,-39.66230872
2.66650,-28.37011564
2.66700,-26.8441436
2.66750,-23.79219952
2.66800,-12.50000644
2.66850,-5.480535058
2.66900,-18.60389459
2.66950,-41.79866957
2.67000,-47.59736332
2.67050,-27.14933801
2.67100,-4.870146243
2.67150,-3.649368612
2.67200,-13.11039525
2.67250,-7.006507097
2.67300,16.4934623
2.67350,36.6362932
2.67400,42.12979254
2.67450,46.09731984
2.67500,60.44145701
2.67550,77.53234384
2.67600,86.38298166
2.67650,89.43492574
2.67700,90.65570337
2.67750,83.02584317
2.67800,61.35704023
2.67850,41.21420932
2.67900,38.77265406
2.67950,42.43498695
2.68000,27.48046097
2.68050,-2.733785389
2.68100,-17.99350577
2.68150,-5.785729466
2.68200,6.116852434
2.68250,-6.090923874
2.68300,-28.98050445
2.68350,-31.11686531
2.68400,-11.2792288
2.68450,3.370102765
2.68500,-1.513007758
2.68550,-14.9415617
2.68600,-18.909089
2.68650,-7.92209032
2.68700,13.44151822
2.68750,33.58434913
2.68800,37.24668202
2.68850,19.24021197
2.68900,-3.038979797
2.68950,-10.36364558
2.69000,-5.175340651
2.69050,-4.564951835
2.69100,-10.05845117
2.69150,-4.259757428
2.69200,19.24021197
2.69250,45.18173662
2.69300,55.55834648
2.69350,50.06484714
2.69400,34.19473794
2.69450,13.13632381
2.69500,-3.95456302
2.69550,-10.36364558
2.69600,-11.58442321
2.69650,-19.82467222
2.69700,-32.33764294
2.69750,-32.64283734
2.69800,-15.85714492
2.69850,0.01296428019
2.69900,-0.9026189429
2.69950,-11.88961762
2.70000,-21.04544985
2.70050,-28.67531004
2.70100,-42.40905839
2.70150,-58.584362
2.70200,-68.65577745
2.70250,-72.62330475
2.70300,-76.59083205
2.70350,-79.33758172
2.70400,-72.92849916
2.70450,-56.75319555
2.70500,-41.18828076
2.70550,-37.83114227
2.70600,-46.6817801
2.70650,-57.97397318
2.70700,-61.02591726
2.70750,-54.31164029
2.70800,-42.7142528
2.70850,-32.64283734
2.70900,-28.98050445
2.70950,-35.08439261
2.71000,-48.81814095
2.71050,-61.63630608
2.71100,-63.46747252
2.71150,-51.25969621
2.71200,-29.59089327
2.71250,-3.038979797
2.71300,26.87007216
2.71350,55.86354089
2.71400,76.92195502
2.71450,89.74012014
2.71500,102.8634797
2.71550,117.5128112
2.71600,126.3634491
2.71650,127.5842267
2.71700,132.7725316
2.71750,146.8114744
2.71800,153.5257514
2.71850,134.9088925
2.71900,100.11673
2.71950,73.87001094
2.72000,65.32456753
2.72050,62.27262345
2.72100,56.77912411
2.72150,56.77912411
2.72200,67.46092838
2.72250,79.36351028
2.72300,83.63623199
2.72350,85.77259284
2.72400,92.18167541
2.72450,96.45439711
2.72500,89.43492574
2.72550,76.61676061
2.72600,68.98690042
2.72650,68.37651161
2.72700,65.01937312
2.72750,52.201208
2.72800,29.61682183
2.72850,2.149325134
2.72900,-23.79219952
2.72950,-40.57789194
2.73000,-47.90255773
2.73050,-53.39605707
2.73100,-60.72072285
2.73150,-62.24669489
2.73200,-53.09086266
2.73250,-43.32464161
2.73300,-43.93503043
2.73350,-50.6493074
2.73400,-56.44800114
2.73450,-68.04538864
2.73500,-93.98691329
2.73550,-118.0972715
2.73600,-107.4154672
2.73650,-51.25969621
2.73700,23.51293367
2.73750,83.63623199
2.73800,117.2076168
2.73850,128.4998099
2.73900,120.2595609
2.73950,97.06478593
2.74000,71.42845568
2.74050,56.4739297
2.74100,52.81159681
2.74150,53.42198563
2.74200,52.5064024
2.74250,44.87654221
2.74300,23.20773927
2.74350,-11.58442321
2.74400,-47.29216891
2.74450,-73.84408238
2.74500,-96.42846855
2.74550,-122.6751876
2.74600,-144.649185
2.74650,-148.6167123
2.74700,-135.1881583
2.74750,-119.3180491
2.74800,-108.025856
2.74850,-96.42846855
2.74900,-82.08433139
2.74950,-72.01291594
2.75000,-68.65577745
2.75050,-66.82461101
2.75100,-63.46747252
2.75150,-65.29863897
2.75200,-74.75966561
2.75250,-81.77913698
2.75300,-76.28563765
2.75350,-63.46747252
2.75400,-54.31164029
2.75450,-46.98697451
2.75500,-27.75972682
2.75550,5.201269211
2.75600,36.6362932
2.75650,49.75965274
2.75700,45.48693103
2.75750,36.94148761
2.75800,30.53240505
2.75850,21.68176723
2.75900,6.72724125
2.75950,-5.480535058
2.76000,0.3181586879
2.76050,27.17526657
2.76100,54.64276326
2.76150,54.94795767
2.76200,22.59735045
2.76250,-18.29870018
2.76300,-40.57789194
2.76350,-41.18828076
2.76400,-36.30517024
2.76450,-32.94803175
2.76500,-17.07792255
2.76550,19.54540637
2.76600,60.44145701
2.76650,76.92195502
2.76700,61.66223464
2.76750,36.3310988
2.76800,24.12332249
2.76850,26.87007216
2.76900,29.92201623
2.76950,22.29215604
2.77000,10.38957414
2.77050,5.811658027
2.77100,10.69476855
2.77150,14.05190703
2.77200,4.285685988
2.77250,-17.99350577
2.77300,-43.93503043
2.77350,-64.68825015
2.77400,-80.25316495
2.77450,-93.68171888
2.77500,-106.1946896
2.77550,-115.3505218
2.77600,-119.9284379
2.77650,-121.1492156
2.77700,-121.45441
2.77750,-120.5388268
2.77800,-114.740133
2.77850,-102.2271623
2.77900,-89.40899718
2.77950,-81.77913698
2.78000,-76.28563765
2.78050,-64.07786134
2.78100,-46.07139128
2.78150,-34.16880938
2.78200,-30.8116709
2.78250,-24.70778274
2.78300,-10.05845117
2.78350,-5.175340651
2.78400,-26.8441436
2.78450,-57.97397318
2.78500,-63.16227811
2.78550,-38.13633668
2.78600,-17.68831137
2.78650,-23.18181071
2.78700,-28.67531004
2.78750,2.454519542
2.78800,57.08431852
2.78850,83.9414264
2.78900,61.96742904
2.78950,23.81812808
2.79000,4.896074803
2.79050,0.3181586879
2.79100,-11.88961762
2.79150,-27.75972682
2.79200,-24.40258834
2.79250,-2.123396574
2.79300,12.525935
2.79350,7.032435657
2.79400,-2.428590981
2.79450,1.233741911
2.79500,15.57787907
2.79550,26.87007216
2.79600,32.05837709
2.79650,36.94148761
2.79700,41.51940373
2.79750,40.90901491
2.79800,32.97396031
2.79850,17.10385111
2.79900,-3.038979797
2.79950,-18.60389459
2.80000,-21.35064426
2.80050,-17.07792255
2.80100,-20.43506104
2.80150,-35.69478142
2.80200,-47.90255773
2.80250,-43.32464161
2.80300,-25.01297715
2.80350,-6.396118282
2.80400,4.590880396
2.80450,7.642824473
2.80500,3.370102765
2.80550,-5.480535058
2.80600,-14.63636729
2.80650,-22.26622748
2.80700,-28.06492123
2.80750,-25.01297715
2.80800,-7.616895912
2.80850,14.35710144
2.80900,19.54540637
2.80950,0.3181586879
2.81000,-26.23375478
2.81050,-43.32464161
2.81100,-51.25969621
2.81150,-58.88955641
2.81200,-63.16227811
2.81250,-55.83761233
2.81300,-38.13633668
2.81350,-19.82467222
2.81400,-7.311701505
2.81450,0.6233530956
2.81500,7.94801888
2.81550,21.68176723
2.81600,48.5388751
2.81650,86.07778725
2.81700,118.4283945
2.81750,133.077726
2.81800,137.6556422
2.81850,143.7595303
2.81900,146.8114744
2.81950,128.8050043
2.82000,84.85700962
2.82050,31.14279387
2.82100,-13.41558966
2.82150,-48.20775214
2.82200,-80.25316495
2.82250,-110.7726057
2.82300,-130.9154366
2.82350,-137.0193248
2.82400,-133.9673807
2.82450,-129.0842702
2.82500,-123.5907708
2.82550,-114.4349386
2.82600,-101.0063847
2.82650,-83.30510902
2.82700,-58.27916759
2.82750,-24.40258834
2.82800,9.168796511
2.82850,29.92201623
2.82900,31.44798827
2.82950,22.29215604
2.83000,16.18826789
2.83050,19.54540637
2.83100,30.53240505
2.83150,43.96095899
2.83200,53.42198563
2.83250,56.1687353
2.83300,56.1687353
2.83350,59.22067937
2.83400,63.79859549
2.83450,60.1362626
2.83500,41.21420932
2.83550,11.91554618
2.83600,-15.85714492
2.83650,-32.94803175
2.83700,-35.69478142
2.83750,-26.8441436
2.83800,-11.58442321
2.83850,4.285685988
2.83900,21.07137841
2.83950,39.07784847
2.84000,55.55834648
2.84050,67.76612279
2.84100,79.05831587
2.84150,93.40245304
2.84200,102.8634797
2.84250,97.06478593
2.84300,81.19467673
2.84350,70.20767805
2.84400,63.18820667
2.84450,41.82459814
2.84500,4.590880396
2.84550,-18.60389459
2.84600,-4.564951835
2.84650,27.17526657
2.84700,33.88954354
2.84750,1.538936319
2.84800,-38.44153109
2.84850,-52.17527944
2.84900,-37.83114227
2.84950,-15.55195051
2.85000,2.149325134
2.85050,15.88307348
2.85100,29.00643301
2.85150,41.82459814
2.85200,57.38951293
2.85250,75.09078857
2.85300,84.85700962
2.85350,80.58428791
2.85400,75.70117739
2.85450,94.01284185
2.85500,139.4868086
2.85550,183.1296089
2.85600,193.2010244
2.85650,167.8698885
2.85700,132.1621428
2.85750,103.7790629
2.85800,79.36351028
2.85850,54.03237444
2.85900,36.6362932
2.85950,36.94148761
2.86000,42.74018136
2.86050,30.53240505
2.86100,-7.006507097
2.86150,-51.87008503
2.86200,-84.22069225
2.86250,-106.8050784
2.86300,-135.4933527
2.86350,-167.5387655
2.86400,-170.895904
2.86450,-117.7920771
2.86500,-27.75972682
2.86550,43.04537577
2.86600,62.27262345
2.86650,51.89601359
2.86700,50.06484714
2.86750,56.77912411
2.86800,43.96095899
2.86850,12.8311294
2.86900,1.233741911
2.86950,30.22721064
2.87000,68.98690042
2.87050,74.17520535
2.87100,40.90901491
2.87150,0.01296428019
2.87200,-25.31817156
2.87250,-33.25322616
2.87300,-27.75972682
2.87350,-10.66883999
2.87400,13.13632381
2.87450,34.49993235
2.87500,46.70770866
2.87550,47.31809747
2.87600,36.6362932
2.87650,19.54540637
2.87700,5.811658027
2.87750,0.3181586879
2.87800,-4.870146243
2.87850,-18.60389459
2.87900,-36.91555905
2.87950,-53.09086266
2.88000,-67.12980541
2.88050,-84.22069225
2.88100,-100.3959959
2.88150,-103.4479399
2.88200,-86.66224751
2.88250,-55.22722351
2.88300,-20.43506104
2.88350,8.558407696
2.88400,27.48046097
2.88450,36.3310988
2.88500,39.99343169
2.88550,42.12979254
2.88600,40.90901491
2.88650,32.05837709
2.88700,15.88307348
2.88750,-1.207813351
2.88800,-14.02597847
2.88850,-22.26622748
2.88900,-30.50647649
2.88950,-42.10386398
2.89000,-51.87008503
2.89050,-50.95450181
2.89100,-35.08439261
2.89150,-8.532479135
2.89200,23.51293367
2.89250,59.22067937
2.89300,92.79206422
2.89350,116.2920336
2.89400,125.4478658
2.89450,124.5322826
2.89500,119.0387833
2.89550,109.2725622
2.89600,93.70764744
2.89650,73.87001094
2.89700,51.28562477
2.89750,24.7337113
2.89800,-6.090923874
2.89850,-36.61036464
2.89900,-59.49994522
2.89950,-71.40252712
2.90000,-73.23369357
2.90050,-68.04538864
2.90100,-61.33111167
2.90150,-56.75319555
2.90200,-52.78566825
2.90250,-45.15580806
2.90300,-35.99997583
2.90350,-28.98050445
2.90400,-22.26622748
2.90450,-8.227284728
2.90500,12.8311294
2.90550,27.17526657
2.90600,21.37657282
2.90650,-0.2922301275
2.90700,-21.96103307
2.90750,-34.47400379
2.90800,-44.54541924
2.90850,-61.02591726
2.90900,-75.98044324
2.90950,-70.79213831
2.91000,-39.35711431
2.91050,0.3181586879
2.91100,24.7337113
2.91150,28.09084979
2.91200,24.12332249
2.91250,24.4285169
2.91300,28.7012386
2.91350,34.19473794
2.91400,43.04537577
2.91450,54.94795767
2.91500,62.27262345
2.91550,61.96742904
2.91600,59.83106819
2.91650,59.83106819
2.91700,58.30509615
2.91750,52.5064024
2.91800,47.01290307
2.91850,43.04537577
2.91900,31.75318268
2.91950,10.38957414
2.92000,-5.480535058
2.92050,-0.9026189429
2.92100,14.66229585
2.92150,17.10385111
2.92200,0.3181586879
2.92250,-17.38311696
2.92300,-19.51947781
2.92350,-11.2792288
2.92400,-4.259757428
2.92450,4.285685988
2.92500,20.4609896
2.92550,35.11032117
2.92600,32.97396031
2.92650,14.35710144
2.92700,-4.259757428
2.92750,-14.9415617
2.92800,-23.48700511
2.92850,-36.30517024
2.92900,-47.59736332
2.92950,-49.12333536
2.93000,-39.66230872
2.93050,-19.51947781
2.93100,12.8311294
2.93150,50.98043037
2.93200,75.70117739
2.93250,73.56481654
2.93300,55.25315207
2.93350,39.38304287
2.93400,27.17526657
2.93450,3.370102765
2.93500,-36.61036464
