type,name,time_units,begin_time,frequency,count,units
signal_4d,"Noraxon MyoMotion-Segments-Forearm RT-Orientation","s",0.0000,200,5108,""

time,x,y,z,w
0.0000,0.09620631437,-0.6399233388,-0.7497268617,0.1383911068
0.0050,0.09624983781,-0.6398503223,-0.7497699461,0.1384650195
0.0100,0.09629335985,-0.6397772966,-0.7498130197,0.1385389301
0.0150,0.09633688049,-0.6397042616,-0.7498560822,0.1386128387
0.0200,0.09638145922,-0.639625017,-0.749903366,0.1386917215
0.0250,0.09642642508,-0.6395399224,-0.7499547471,0.1387750319
0.0300,0.09647111146,-0.6394494021,-0.7500100506,0.1388622008
0.0350,0.09651488571,-0.6393539231,-0.7500690601,0.1389526645
0.0400,0.09655716593,-0.6392539817,-0.7501315243,0.13904588
0.0450,0.0965974265,-0.6391500969,-0.7501971615,0.1391413303
0.0500,0.09663520151,-0.6390428077,-0.7502656603,0.1392385244
0.0550,0.09667008983,-0.6389326711,-0.7503366817,0.1393370002
0.0600,0.09670176127,-0.6388202582,-0.75040986,0.1394363261
0.0650,0.0967299612,-0.6387061508,-0.7504848078,0.1395360913
0.0700,0.0967545136,-0.638590938,-0.7505611207,0.1396358909
0.0750,0.09677532727,-0.6384752155,-0.7506383797,0.1397353148
0.0800,0.09679240395,-0.6383595788,-0.7507161556,0.1398339463
0.0850,0.09680584019,-0.6382446146,-0.7507940164,0.1399313627
0.0900,0.09681581975,-0.6381308972,-0.7508715321,0.1400271309
0.0950,0.09682259685,-0.638018989,-0.750948277,0.140120804
0.1000,0.09682647461,-0.6379094403,-0.751023832,0.1402119234
0.1050,0.09682778994,-0.6378027907,-0.7510977844,0.140300027
0.1100,0.09682690643,-0.6376995696,-0.7511697255,0.1403846591
0.1150,0.09682420287,-0.6376002919,-0.7512392558,0.1404653768
0.1200,0.09682005227,-0.6375054484,-0.7513059941,0.1405417518
0.1250,0.09681480272,-0.6374154983,-0.7513695869,0.1406133724
0.1300,0.09680876864,-0.637330862,-0.7514297126,0.1406798553
0.1350,0.0968022286,-0.6372519134,-0.7514860849,0.1407408668
0.1400,0.09679542755,-0.6371789655,-0.7515384599,0.1407961449
0.1450,0.09678858246,-0.6371122552,-0.7515866454,0.1408455148
0.1500,0.09678188704,-0.6370519303,-0.7516305097,0.1408888969
0.1550,0.09678139879,-0.6369254674,-0.7517198925,0.1409840883
0.1600,0.0967788228,-0.6368070699,-0.7518042105,0.1410710611
0.1650,0.0967742709,-0.636697033,-0.7518834217,0.1411486761
0.1700,0.09676744057,-0.6365958028,-0.7519571103,0.1412173875
0.1750,0.09675973426,-0.6365023396,-0.7520258018,0.1412781614
0.1800,0.0967506047,-0.636417094,-0.752088944,0.1413323153
0.1850,0.09674032513,-0.6363391722,-0.752147079,0.1413808295
0.1900,0.09673069492,-0.6362677195,-0.7522006591,0.1414239377
0.1950,0.09672125403,-0.6362030508,-0.7522493792,0.1414621812
0.2000,0.09671075213,-0.6361445566,-0.7522940019,0.1414951178
0.2050,0.09670000989,-0.636091034,-0.7523353026,0.1415234857
0.2100,0.09668817021,-0.6360441013,-0.7523719669,0.1415475971
0.2150,0.09667559594,-0.6360015324,-0.7524056242,0.1415685578
0.2200,0.09666207007,-0.6359637179,-0.7524358398,0.1415870778
0.2250,0.09664633661,-0.6359309516,-0.7524627344,0.1416020612
0.2300,0.09662975443,-0.6359036869,-0.7524857633,0.1416134441
0.2350,0.09661113137,-0.6358801242,-0.7525065193,0.1416216629
0.2400,0.0965908476,-0.6358605122,-0.7525245121,0.141627949
0.2450,0.09656912407,-0.6358453582,-0.7525394971,0.1416311761
0.2500,0.09654542472,-0.6358329062,-0.7525530569,0.141631186
0.2550,0.09652017581,-0.6358234637,-0.7525646568,0.1416291495
0.2600,0.09649316393,-0.6358166042,-0.7525748407,0.1416242361
0.2650,0.09646498954,-0.6358121469,-0.7525833679,0.1416181275
0.2700,0.09643775611,-0.6358104567,-0.7525897452,0.1416103732
0.2750,0.09640931112,-0.6358108303,-0.7525948745,0.1416008036
0.2800,0.09638110365,-0.6358128201,-0.7525988219,0.1415900914
0.2850,0.0963521098,-0.6358165024,-0.7526017922,0.1415775005
0.2900,0.09632193504,-0.6358227383,-0.7526028758,0.141564267
0.2950,0.09629160358,-0.6358305779,-0.7526027977,0.1415501053
0.3000,0.09625945495,-0.6358399817,-0.7526016491,0.1415358355
0.3050,0.09622625531,-0.6358513041,-0.7525991239,0.1415209721
0.3100,0.09619084717,-0.6358647496,-0.7525951916,0.1415055429
0.3150,0.09615474641,-0.6358799204,-0.7525898698,0.1414902095
0.3200,0.0961171357,-0.6358975652,-0.7525828456,0.1414738256
0.3250,0.09607735372,-0.6359163382,-0.7525748734,0.1414588731
0.3300,0.09603668608,-0.6359368569,-0.7525655303,0.1414439521
0.3350,0.09599529959,-0.6359590396,-0.7525550274,0.1414281909
0.3400,0.09595302463,-0.6359825832,-0.7525432674,0.1414135836
0.3450,0.09591010582,-0.636007432,-0.7525304356,0.1413992273
0.3500,0.0958656835,-0.6360349507,-0.7525158446,0.1413832234
0.3550,0.09582097564,-0.6360631504,-0.7525007898,0.141366795
0.3600,0.09577547115,-0.6360931526,-0.7524843031,0.1413503941
0.3650,0.09572935257,-0.6361248081,-0.7524666953,0.1413329119
0.3700,0.09568256222,-0.6361578927,-0.7524480358,0.1413150251
0.3750,0.09563612556,-0.6361922129,-0.7524282599,0.1412972516
0.3800,0.09558902968,-0.6362264688,-0.7524086753,0.1412791672
0.3850,0.09554162501,-0.6362619235,-0.7523881997,0.1412606088
0.3900,0.09549575566,-0.6362987787,-0.7523662666,0.1412424357
0.3950,0.09545300783,-0.6363365651,-0.7523432314,0.1412237987
0.4000,0.09541271061,-0.6363743159,-0.7523200518,0.1412044064
0.4050,0.09537510116,-0.6364136082,-0.7522950448,0.1411859586
0.4100,0.09534046061,-0.6364525456,-0.752269901,0.1411678074
0.4150,0.09531046893,-0.6364912717,-0.752244259,0.1411500991
0.4200,0.09528434939,-0.6365306369,-0.7522175546,0.1411325318
0.4250,0.09526124259,-0.6365707464,-0.7521899445,0.1411143788
0.4300,0.09524280339,-0.6366114223,-0.752161061,0.1410972845
0.4350,0.09522891592,-0.6366514794,-0.7521317381,0.1410822308
0.4400,0.09521835362,-0.6366917782,-0.752101477,0.1410688236
0.4450,0.09521194073,-0.6367325771,-0.7520698066,0.1410578515
0.4500,0.09520968872,-0.6367736409,-0.7520372134,0.1410477757
0.4550,0.09521075212,-0.6368139224,-0.7520046218,0.1410389654
0.4600,0.09521402487,-0.6368545763,-0.751971274,0.1410309937
0.4650,0.09521895457,-0.6368946155,-0.7519379675,0.1410244395
0.4700,0.09522439013,-0.6369347249,-0.7519040974,0.1410202116
0.4750,0.09523021844,-0.6369738537,-0.7518709385,0.1410163358
0.4800,0.09523505016,-0.6370129781,-0.7518377399,0.1410133464
0.4850,0.09523897711,-0.6370514182,-0.751805441,0.141009243
0.4900,0.09524021534,-0.6370896245,-0.7517735782,0.1410056696
0.4950,0.09523714671,-0.6371267282,-0.7517431463,0.1410023407
0.5000,0.09523135528,-0.6371644181,-0.751712414,0.1409997869
0.5050,0.09522043392,-0.6372014988,-0.7516826493,0.1409982753
0.5100,0.09520547088,-0.6372372436,-0.7516545616,0.1409965736
0.5150,0.0951868613,-0.6372739609,-0.7516259747,0.1409955829
0.5200,0.09516414366,-0.6373097727,-0.7515987047,0.1409944198
0.5250,0.09513812629,-0.6373433874,-0.7515734342,0.1409947387
0.5300,0.09510849015,-0.6373761313,-0.7515491334,0.14099625
0.5350,0.09507532242,-0.6374080241,-0.7515257882,0.1409988781
0.5400,0.09503887489,-0.6374383257,-0.7515040771,0.1410021818
0.5450,0.09499958862,-0.6374672552,-0.7514835758,0.1410071344
0.5500,0.09495809206,-0.6374951956,-0.7514638804,0.1410137324
0.5550,0.09491264037,-0.6375227752,-0.7514448984,0.1410208016
0.5600,0.09486423479,-0.6375505071,-0.7514260251,0.1410285669
0.5650,0.09481346553,-0.6375771618,-0.7514081918,0.1410372249
0.5700,0.09475852622,-0.6376026734,-0.7513919822,0.141045176
0.5750,0.09469975711,-0.637627369,-0.7513768961,0.141053374
0.5800,0.09463711007,-0.6376524259,-0.7513619207,0.1410619198
0.5850,0.09457189036,-0.6376777052,-0.7513471639,0.1410699864
0.5900,0.0945041322,-0.6377024918,-0.7513327365,0.1410801903
0.5950,0.09443423906,-0.6377276586,-0.7513182596,0.1410903281
0.6000,0.09436391884,-0.6377531659,-0.7513032568,0.141101972
0.6050,0.09429189192,-0.6377791509,-0.7512879591,0.1411141253
0.6100,0.09421876731,-0.6378052604,-0.7512724236,0.1411276701
0.6150,0.09414441794,-0.6378316792,-0.7512563423,0.1411434934
0.6200,0.09406985776,-0.6378584972,-0.7512399143,0.1411594509
0.6250,0.09399342024,-0.6378869907,-0.7512221214,0.1411763021
0.6300,0.09391563343,-0.6379158422,-0.7512039345,0.1411944786
0.6350,0.0938358693,-0.6379454197,-0.7511848925,0.1412151846
0.6400,0.09375554591,-0.6379751567,-0.751165576,0.1412369445
0.6450,0.09367455381,-0.6380056404,-0.7511454257,0.141260151
0.6500,0.09359270772,-0.6380365351,-0.7511245702,0.1412857564
0.6550,0.09351003472,-0.6380683164,-0.7511026873,0.1413133052
0.6600,0.09342809511,-0.6381010695,-0.751079489,0.1413429068
0.6650,0.09334661914,-0.6381332795,-0.7510559626,0.1413763321
0.6700,0.09326721922,-0.6381654005,-0.7510319216,0.1414114571
0.6750,0.09318923606,-0.6381977025,-0.7510071961,0.1414484008
0.6800,0.09311441734,-0.6382302399,-0.7509812823,0.1414884437
0.6850,0.09304233149,-0.6382636252,-0.7509540968,0.1415295509
0.6900,0.09297406569,-0.6382972868,-0.7509256013,0.1415737903
0.6950,0.09290992963,-0.6383304382,-0.7508965119,0.1416207084
0.7000,0.09285090379,-0.6383634925,-0.7508663195,0.1416705026
0.7050,0.09279673651,-0.6383959433,-0.750835519,0.1417229998
0.7100,0.09274781702,-0.6384285036,-0.7508033649,0.1417786849
0.7150,0.0927039922,-0.6384603912,-0.7507708875,0.1418357258
0.7200,0.09266546156,-0.6384924608,-0.7507370895,0.1418954269
0.7250,0.09263331671,-0.6385247268,-0.7507015035,0.1419594821
0.7300,0.09260791227,-0.6385568913,-0.7506646544,0.1420262222
0.7350,0.09258800191,-0.6385900083,-0.750625981,0.1420946862
0.7400,0.09257509397,-0.638623505,-0.7505858612,0.1421644674
0.7450,0.09256795256,-0.638657442,-0.7505442305,0.1422364371
0.7500,0.09256653167,-0.6386923096,-0.7505005563,0.1423112287
0.7550,0.09257034386,-0.638727761,-0.7504552195,0.1423887018
0.7600,0.09257898271,-0.638761939,-0.7504100263,0.1424679251
0.7650,0.09259304488,-0.6387968545,-0.7503633623,0.1425479962
0.7700,0.09261121404,-0.6388310238,-0.7503166402,0.1426289784
0.7750,0.09263370982,-0.6388654237,-0.7502690889,0.1427104077
0.7800,0.09266039033,-0.6388995765,-0.7502208839,0.1427935872
0.7850,0.09269176191,-0.6389339134,-0.7501715589,0.142878703
0.7900,0.09272743727,-0.6389677463,-0.7501220796,0.1429640069
0.7950,0.09276783578,-0.6390004181,-0.7500725823,0.1430514441
0.8000,0.09281365093,-0.6390327033,-0.7500226826,0.1431391137
0.8050,0.09286388307,-0.6390642365,-0.7499727064,0.143227583
0.8100,0.09291968748,-0.639095473,-0.7499217842,0.143318616
0.8150,0.09297837338,-0.6391252438,-0.7498714814,0.1434109695
0.8200,0.09303990454,-0.6391546826,-0.7498207729,0.14350497
0.8250,0.09310413798,-0.6391841566,-0.7497697874,0.1435983957
0.8300,0.09317009032,-0.6392127907,-0.7497191992,0.1436922574
0.8350,0.09323713235,-0.6392411636,-0.7496687376,0.1437857985
0.8400,0.09330665396,-0.6392683522,-0.7496188247,0.1438800194
0.8450,0.0933774436,-0.6392955827,-0.749569093,0.1439721702
0.8500,0.09344825712,-0.6393220995,-0.7495200202,0.1440639293
0.8550,0.09352029841,-0.6393475464,-0.7494716878,0.1441556723
0.8600,0.09359298551,-0.6393725063,-0.7494238277,0.1442465866
0.8650,0.09366593984,-0.6393977375,-0.7493758051,0.1443368553
0.8700,0.09373802975,-0.6394228752,-0.7493280028,0.1444268423
0.8750,0.09381060437,-0.6394474834,-0.7492805416,0.1445169762
0.8800,0.09388162246,-0.639471238,-0.7492344355,0.1446047626
0.8850,0.09395119874,-0.6394947275,-0.7491888534,0.1446918367
0.8900,0.09401927593,-0.6395163423,-0.7491457495,0.1447752385
0.8950,0.09408386154,-0.6395368914,-0.7491041689,0.1448576394
0.9000,0.09414504883,-0.6395567276,-0.7490640534,0.1449377309
0.9050,0.0942034918,-0.6395751117,-0.7490259639,0.1450154613
0.9100,0.09425836592,-0.6395929352,-0.7489891348,0.1450913977
0.9150,0.09430938569,-0.6396101423,-0.7489538989,0.1451642619
0.9200,0.09435731903,-0.6396249321,-0.7489213328,0.1452359451
0.9250,0.09440326704,-0.6396381611,-0.7488907172,0.1453056769
0.9300,0.09444766935,-0.6396500841,-0.7488613668,0.145375586
0.9350,0.094491737,-0.6396596232,-0.7488340896,0.1454454683
0.9400,0.09453325447,-0.6396687607,-0.7488075258,0.1455150497
0.9450,0.09457346771,-0.6396766504,-0.7487821028,0.1455850424
0.9500,0.09461353136,-0.6396824605,-0.7487582594,0.1456560965
0.9550,0.09465285699,-0.6396865202,-0.7487357164,0.1457285818
0.9600,0.09469015116,-0.6396884206,-0.7487153089,0.1458008437
0.9650,0.09472711784,-0.6396901351,-0.748695116,0.1458729839
0.9700,0.09476243058,-0.6396899278,-0.7486763365,0.1459473235
0.9750,0.0947959078,-0.6396887774,-0.7486586849,0.1460211542
0.9800,0.0948273382,-0.639687516,-0.7486414024,0.1460948611
0.9850,0.09485621024,-0.63968402,-0.7486261131,0.1461697531
0.9900,0.09488301153,-0.6396785225,-0.7486128672,0.1462442377
0.9950,0.09490656679,-0.6396722415,-0.748600524,0.1463195905
1.0000,0.09492823684,-0.6396652855,-0.7485889831,0.1463949681
1.0050,0.09494762195,-0.639657804,-0.7485780442,0.1464710028
1.0100,0.09496387588,-0.639649384,-0.7485682406,0.1465473199
1.0150,0.09497681847,-0.6396400717,-0.748559594,0.1466237254
1.0200,0.09498671614,-0.6396292715,-0.7485526611,0.1466998032
1.0250,0.09499391552,-0.6396173262,-0.7485473072,0.1467745244
1.0300,0.0949966841,-0.6396050366,-0.7485429014,0.1468487384
1.0350,0.09499498441,-0.6395922324,-0.7485399981,0.1469203879
1.0400,0.09499036822,-0.6395789548,-0.7485379671,0.1469915044
1.0450,0.09498202529,-0.6395654496,-0.7485369248,0.1470609496
1.0500,0.0949703238,-0.6395517456,-0.7485370167,0.1471276211
1.0550,0.0949549257,-0.6395370605,-0.7485387917,0.147192349
1.0600,0.09493912867,-0.6395236772,-0.7485397724,0.1472556869
1.0650,0.09492029345,-0.6395103759,-0.7485413182,0.1473177243
1.0700,0.09490062166,-0.6394968533,-0.7485433277,0.1473788762
1.0750,0.09487857998,-0.6394826901,-0.7485462815,0.147439508
1.0800,0.09485379728,-0.639466951,-0.7485512882,0.1474982869
1.0850,0.09482427662,-0.6394496758,-0.7485582554,0.1475567922
1.0900,0.09478876074,-0.6394319586,-0.7485665078,0.1476145134
1.0950,0.09474752546,-0.6394132648,-0.7485766689,0.1476704237
1.1000,0.09469929713,-0.6393917926,-0.7485902962,0.1477252421
1.1050,0.09464499127,-0.6393692914,-0.7486057699,0.1477790109
1.1100,0.09458389827,-0.6393450207,-0.7486236869,0.1478323578
1.1150,0.09451771111,-0.6393183362,-0.7486444345,0.1478850163
1.1200,0.09444824165,-0.6392898692,-0.748667442,0.14793598
1.1250,0.09437414661,-0.6392593868,-0.7486926338,0.147987489
1.1300,0.09429759211,-0.6392267433,-0.7487198234,0.1480397273
1.1350,0.0942194326,-0.6391919815,-0.7487488321,0.1480928619
1.1400,0.09413801151,-0.6391558279,-0.7487793015,0.1481466169
1.1450,0.09405381702,-0.6391173786,-0.7488113741,0.1482038529
1.1500,0.09396722819,-0.6390774098,-0.7488449969,0.1482612391
1.1550,0.09387559019,-0.6390355553,-0.748880792,0.1483188862
1.1600,0.09377771275,-0.6389905676,-0.7489195531,0.1483789002
1.1650,0.09367159904,-0.6389425391,-0.7489617161,0.1484399242
1.1700,0.09355660128,-0.6388912611,-0.7490071391,0.1485039543
1.1750,0.09342917484,-0.6388361429,-0.7490567559,0.1485710207
1.1800,0.09328897634,-0.638777152,-0.7491103723,0.1486424131
1.1850,0.09313146087,-0.6387123626,-0.7491699447,0.1487193422
1.1900,0.09295448346,-0.6386435673,-0.7492342888,0.1488013389
1.1950,0.09275640506,-0.6385688775,-0.7493049132,0.1488898422
1.2000,0.09253492108,-0.6384869992,-0.749382905,0.1489862472
1.2050,0.09228810776,-0.6383982466,-0.7494681225,0.1490909697
1.2100,0.09201687562,-0.6383005566,-0.7495621365,0.1492042142
1.2150,0.09172182117,-0.6381934625,-0.7496649291,0.1493275125
1.2200,0.09140348368,-0.6380792416,-0.7497742379,0.1494619578
1.2250,0.09106515766,-0.6379553279,-0.749891703,0.1496080558
1.2300,0.09070589826,-0.6378233608,-0.7500165048,0.1497632899
1.2350,0.09032717231,-0.6376844406,-0.7501474071,0.1499280621
1.2400,0.0899324938,-0.6375384446,-0.7502841239,0.1501020039
1.2450,0.08952258408,-0.6373855329,-0.750426252,0.1502858265
1.2500,0.0890992103,-0.6372270223,-0.7505727077,0.1504781154
1.2550,0.08866407658,-0.6370634784,-0.7507227958,0.1506787638
1.2600,0.08822098033,-0.6368952002,-0.7508752177,0.1508905893
1.2650,0.08777041606,-0.6367217778,-0.751030502,0.1511122657
1.2700,0.08731689506,-0.6365451163,-0.7511865727,0.1513433441
1.2750,0.08686086205,-0.6363643695,-0.7513435996,0.1515861969
1.2800,0.08640453826,-0.6361800383,-0.7515010569,0.1518399685
1.2850,0.08594818231,-0.6359924674,-0.7516586283,0.1521045622
1.2900,0.08549080611,-0.6358010647,-0.7518165334,0.1523818502
1.2950,0.08503418621,-0.6356052488,-0.7519749558,0.1526722657
1.3000,0.08457660028,-0.6354046491,-0.752134254,0.1529764508
1.3050,0.08412081909,-0.6351988583,-0.7522941317,0.1532959153
1.3100,0.08366761482,-0.6349875772,-0.7524547404,0.1536306303
1.3150,0.08321849667,-0.6347706602,-0.7526155099,0.1539830673
1.3200,0.08277345068,-0.634546366,-0.7527774011,0.1543555951
1.3250,0.08233293691,-0.6343150406,-0.7529399994,0.1547484217
1.3300,0.08189704858,-0.6340757343,-0.7531043285,0.1551602623
1.3350,0.08146608011,-0.6338288995,-0.7532697851,0.1555918854
1.3400,0.08103576432,-0.6335748855,-0.753437152,0.1560401469
1.3450,0.08060670839,-0.6333120903,-0.7536075924,0.1565054362
1.3500,0.0801775044,-0.633040966,-0.7537810349,0.1569867973
1.3550,0.07974712096,-0.6327626662,-0.7539567718,0.1574833046
1.3600,0.07931276992,-0.6324749148,-0.7541369245,0.1579951446
1.3650,0.07887575099,-0.6321775009,-0.7543216229,0.1585216467
1.3700,0.07843296824,-0.6318703916,-0.7545112207,0.1590625523
1.3750,0.07798391026,-0.6315533399,-0.7547056439,0.1596191705
1.3800,0.07752709543,-0.6312253,-0.7549057733,0.1601918961
1.3850,0.07706261178,-0.6308856661,-0.7551123528,0.1607792423
1.3900,0.07659020942,-0.6305316234,-0.7553271006,0.1613839605
1.3950,0.0761068093,-0.6301635067,-0.7555499,0.1620063485
1.4000,0.07561388917,-0.6297806384,-0.7557807142,0.1626480841
1.4050,0.07510939354,-0.6293801841,-0.7560219713,0.1633093439
1.4100,0.07459288949,-0.6289606498,-0.7562745217,0.1639916148
1.4150,0.07406338064,-0.6285228449,-0.7565374291,0.1646959846
1.4200,0.07351960669,-0.6280642207,-0.7568118958,0.1654265895
1.4250,0.07296101576,-0.6275832365,-0.7570989242,0.1661842062
1.4300,0.07238658255,-0.6270789085,-0.7573992881,0.1669686905
1.4350,0.07179642993,-0.626549657,-0.7577138601,0.1677811259
1.4400,0.07118891153,-0.625994531,-0.7580431713,0.1686224671
1.4450,0.07056398584,-0.6254131418,-0.7583878159,0.1694905504
1.4500,0.06992032747,-0.6248041985,-0.7587480091,0.1703887319
1.4550,0.06925715157,-0.6241670687,-0.7591242351,0.171316412
1.4600,0.06857203122,-0.6235017379,-0.7595169466,0.1722714929
1.4650,0.06786253888,-0.6228094366,-0.7599251149,0.1732538637
1.4700,0.06712596518,-0.6220883026,-0.7603506353,0.1742617571
1.4750,0.06636185128,-0.6213382438,-0.7607935465,0.1752942416
1.4800,0.06556655314,-0.6205587917,-0.761254283,0.1763511548
1.4850,0.06473923138,-0.6197501395,-0.7617329298,0.1774303812
1.4900,0.06387744947,-0.6189103211,-0.7622304728,0.1785340085
1.4950,0.06298018738,-0.6180390728,-0.7627474785,0.1796593568
1.5000,0.06204585385,-0.6171353042,-0.7632844898,0.180806847
1.5050,0.06107271893,-0.6161979746,-0.7638422792,0.1819756894
1.5100,0.06005641269,-0.615227,-0.7644205709,0.183167018
1.5150,0.05899524151,-0.6142208227,-0.765020692,0.1843791833
1.5200,0.05788647039,-0.613177674,-0.7656436648,0.185612702
1.5250,0.0567273228,-0.612097681,-0.766289318,0.1868665858
1.5300,0.05551820502,-0.6109796444,-0.7669575052,0.1881429995
1.5350,0.05425787602,-0.6098225872,-0.7676483426,0.1894426488
1.5400,0.05294491526,-0.6086254257,-0.7683618377,0.1907669088
1.5450,0.05158123143,-0.6073883682,-0.7690972124,0.1921151338
1.5500,0.0501673296,-0.6061115672,-0.7698534436,0.1934881973
1.5550,0.04870556362,-0.6047949434,-0.7706298228,0.1948859172
1.5600,0.04719533488,-0.6034387102,-0.771425772,0.1963074161
1.5650,0.04563863561,-0.6020433118,-0.7722404044,0.1977516713
1.5700,0.04403554939,-0.6006099336,-0.7730718891,0.1992195582
1.5750,0.04238704102,-0.5991378659,-0.7739202433,0.2007102723
1.5800,0.04069408427,-0.5976286267,-0.7747839354,0.2022223269
1.5850,0.03895810252,-0.596083512,-0.7756614233,0.2037549249
1.5900,0.0371814937,-0.5945045724,-0.7765502535,0.2053084354
1.5950,0.03536461002,-0.5928919913,-0.7774500977,0.2068810686
1.6000,0.03350900862,-0.5912477452,-0.778358775,0.2084727019
1.6050,0.03161424496,-0.5895729344,-0.7792752027,0.2100820149
