type,name,time_units,begin_time,frequency,count,units
signal,"Noraxon MyoMotion-Segments-Upper arm RT-Course","s",0.0000,200,5108,"deg"

time,value
0.0000,-1.784660162
0.0050,-1.789245508
0.0100,-1.793830769
0.0150,-1.798415947
0.0200,-1.803232588
0.0250,-1.808232067
0.0300,-1.813366153
0.0350,-1.818589458
0.0400,-1.823861257
0.0450,-1.829146927
0.0500,-1.834418377
0.0550,-1.839653567
0.0600,-1.844835744
0.0650,-1.84995263
0.0700,-1.854995614
0.0750,-1.859959091
0.0800,-1.864839915
0.0850,-1.869636723
0.0900,-1.874348875
0.0950,-1.878975633
0.1000,-1.883516065
0.1050,-1.887968939
0.1100,-1.892332045
0.1150,-1.896601579
0.1200,-1.900771821
0.1250,-1.90483446
0.1300,-1.908777596
0.1350,-1.912585299
0.1400,-1.916238163
0.1450,-1.919714308
0.1500,-1.922990726
0.1550,-1.929021822
0.1600,-1.934567998
0.1650,-1.939697047
0.1700,-1.944305999
0.1750,-1.948322237
0.1800,-1.951991487
0.1850,-1.955148404
0.1900,-1.957884737
0.1950,-1.960122107
0.2000,-1.962052988
0.2050,-1.963610295
0.2100,-1.96480953
0.2150,-1.965734099
0.2200,-1.966315143
0.2250,-1.966565526
0.2300,-1.966509467
0.2350,-1.966147188
0.2400,-1.965567195
0.2450,-1.964601139
0.2500,-1.963369713
0.2550,-1.961863699
0.2600,-1.960168278
0.2650,-1.958039729
0.2700,-1.955936699
0.2750,-1.953597645
0.2800,-1.951320521
0.2850,-1.948844132
0.2900,-1.946359962
0.2950,-1.943716916
0.3000,-1.94089762
0.3050,-1.937912333
0.3100,-1.934750871
0.3150,-1.93133276
0.3200,-1.927728042
0.3250,-1.924023776
0.3300,-1.920234712
0.3350,-1.916414052
0.3400,-1.912587343
0.3450,-1.908739298
0.3500,-1.905061974
0.3550,-1.901556833
0.3600,-1.898065267
0.3650,-1.894520004
0.3700,-1.891031514
0.3750,-1.887617131
0.3800,-1.884284248
0.3850,-1.880978853
0.3900,-1.877789363
0.3950,-1.874593465
0.4000,-1.871406678
0.4050,-1.868487269
0.4100,-1.865589597
0.4150,-1.862978873
0.4200,-1.860488703
0.4250,-1.858365341
0.4300,-1.856585124
0.4350,-1.855065484
0.4400,-1.853790874
0.4450,-1.852733123
0.4500,-1.851994697
0.4550,-1.85130912
0.4600,-1.850909247
0.4650,-1.850708903
0.4700,-1.850698183
0.4750,-1.85092335
0.4800,-1.851185134
0.4850,-1.851566275
0.4900,-1.851834431
0.4950,-1.852298016
0.5000,-1.852579407
0.5050,-1.852899677
0.5100,-1.853132639
0.5150,-1.853261327
0.5200,-1.85342333
0.5250,-1.85360727
0.5300,-1.853639034
0.5350,-1.853702941
0.5400,-1.853829621
0.5450,-1.854044428
0.5500,-1.854277296
0.5550,-1.85465121
0.5600,-1.855105733
0.5650,-1.855760834
0.5700,-1.856361479
0.5750,-1.857085729
0.5800,-1.857694544
0.5850,-1.858452286
0.5900,-1.859253332
0.5950,-1.860347463
0.6000,-1.861557584
0.6050,-1.863131455
0.6100,-1.865056247
0.6150,-1.867437658
0.6200,-1.870040271
0.6250,-1.872928602
0.6300,-1.876123362
0.6350,-1.879571291
0.6400,-1.883135567
0.6450,-1.886937732
0.6500,-1.890887941
0.6550,-1.8951273
0.6600,-1.899575532
0.6650,-1.904332552
0.6700,-1.909485559
0.6750,-1.915204792
0.6800,-1.921348058
0.6850,-1.927969833
0.6900,-1.935104427
0.6950,-1.94298166
0.7000,-1.951379796
0.7050,-1.960337456
0.7100,-1.969953808
0.7150,-1.980109495
0.7200,-1.990894396
0.7250,-2.002174493
0.7300,-2.013992172
0.7350,-2.02634576
0.7400,-2.039165944
0.7450,-2.052612422
0.7500,-2.066407902
0.7550,-2.080850767
0.7600,-2.095664032
0.7650,-2.110890375
0.7700,-2.126410316
0.7750,-2.142089319
0.7800,-2.158083612
0.7850,-2.174185281
0.7900,-2.190632428
0.7950,-2.207073619
0.8000,-2.223733565
0.8050,-2.240575009
0.8100,-2.257595265
0.8150,-2.274701307
0.8200,-2.291756532
0.8250,-2.308816872
0.8300,-2.325913985
0.8350,-2.342933514
0.8400,-2.359825932
0.8450,-2.376394036
0.8500,-2.392758968
0.8550,-2.408796506
0.8600,-2.424656023
0.8650,-2.440217436
0.8700,-2.45547922
0.8750,-2.470456811
0.8800,-2.485119978
0.8850,-2.499496216
0.8900,-2.513441229
0.8950,-2.52696312
0.9000,-2.540211678
0.9050,-2.5530283
0.9100,-2.565388834
0.9150,-2.577403715
0.9200,-2.589038274
0.9250,-2.600301129
0.9300,-2.611235119
0.9350,-2.621894152
0.9400,-2.63250381
0.9450,-2.643041971
0.9500,-2.653548792
0.9550,-2.663868142
0.9600,-2.674205375
0.9650,-2.684653606
0.9700,-2.694966445
0.9750,-2.705210901
0.9800,-2.715279942
0.9850,-2.725334931
0.9900,-2.735341916
0.9950,-2.745112321
1.0000,-2.754675788
1.0050,-2.763927178
1.0100,-2.772896351
1.0150,-2.781618526
1.0200,-2.790060986
1.0250,-2.798196846
1.0300,-2.806055015
1.0350,-2.813363349
1.0400,-2.820326305
1.0450,-2.82684002
1.0500,-2.832794378
1.0550,-2.8383389
1.0600,-2.84346656
1.0650,-2.848109049
1.0700,-2.852275966
1.0750,-2.856095106
1.0800,-2.859369062
1.0850,-2.862226394
1.0900,-2.864391295
1.0950,-2.866009158
1.1000,-2.866796958
1.1050,-2.866728669
1.1100,-2.865848557
1.1150,-2.864321505
1.1200,-2.862256907
1.1250,-2.859715117
1.1300,-2.856912947
1.1350,-2.853787305
1.1400,-2.850368928
1.1450,-2.84690476
1.1500,-2.843238927
1.1550,-2.839339788
1.1600,-2.834925828
1.1650,-2.829963857
1.1700,-2.824340701
1.1750,-2.817907708
1.1800,-2.810652756
1.1850,-2.802268649
1.1900,-2.792825573
1.1950,-2.782121003
1.2000,-2.770121338
1.2050,-2.75685476
1.2100,-2.742258223
1.2150,-2.72637943
1.2200,-2.709712686
1.2250,-2.692326826
1.2300,-2.67447676
1.2350,-2.656393046
1.2400,-2.638116645
1.2450,-2.619980624
1.2500,-2.602015968
1.2550,-2.58467682
1.2600,-2.568090765
1.2650,-2.55227552
1.2700,-2.537554093
1.2750,-2.524066872
1.2800,-2.512070046
1.2850,-2.501535148
1.2900,-2.492634932
1.2950,-2.485662702
1.3000,-2.480735659
1.3050,-2.47799993
1.3100,-2.477439895
1.3150,-2.47929136
1.3200,-2.483458375
1.3250,-2.490239622
1.3300,-2.499708158
1.3350,-2.512003485
1.3400,-2.526924544
1.3450,-2.544384105
1.3500,-2.564397898
1.3550,-2.586413789
1.3600,-2.610361207
1.3650,-2.635974989
1.3700,-2.663134312
1.3750,-2.691637326
1.3800,-2.721415308
1.3850,-2.752330039
1.3900,-2.784520412
1.3950,-2.817791533
1.4000,-2.852522145
1.4050,-2.888537062
1.4100,-2.926059403
1.4150,-2.965010019
1.4200,-3.00545456
1.4250,-3.047394399
1.4300,-3.090854513
1.4350,-3.135937978
1.4400,-3.18268608
1.4450,-3.231023852
1.4500,-3.280940422
1.4550,-3.332024548
1.4600,-3.384142973
1.4650,-3.437376364
1.4700,-3.491428308
1.4750,-3.546011832
1.4800,-3.600836593
1.4850,-3.655610835
1.4900,-3.710189292
1.4950,-3.764328622
1.5000,-3.817645159
1.5050,-3.870074616
1.5100,-3.921581923
1.5150,-3.972086383
1.5200,-4.021211226
1.5250,-4.069112479
1.5300,-4.115685749
1.5350,-4.161301022
1.5400,-4.20613716
1.5450,-4.250403915
1.5500,-4.29450978
1.5550,-4.33876452
1.5600,-4.383473129
1.5650,-4.428990142
1.5700,-4.475580756
1.5750,-4.523295179
1.5800,-4.572424551
1.5850,-4.622961087
1.5900,-4.674804092
1.5950,-4.727847614
1.6000,-4.782225666
1.6050,-4.837742249
1.6100,-4.894359476
1.6150,-4.951961456
1.6200,-5.010580163
1.6250,-5.069907394
1.6300,-5.130043942
1.6350,-5.190831745
1.6400,-5.252444162
1.6450,-5.314821229
1.6500,-5.378053483
1.6550,-5.442329226
1.6600,-5.50756354
1.6650,-5.574022633
1.6700,-5.641799418
1.6750,-5.710821293
1.6800,-5.781261122
1.6850,-5.853045188
1.6900,-5.926048227
1.6950,-6.000382811
1.7000,-6.075927108
1.7050,-6.152594476
1.7100,-6.230073081
1.7150,-6.308120557
1.7200,-6.386632494
1.7250,-6.465358313
1.7300,-6.544357121
1.7350,-6.623458398
1.7400,-6.702657282
1.7450,-6.781832914
1.7500,-6.861059958
1.7550,-6.940551325
1.7600,-7.020433059
1.7650,-7.100539408
1.7700,-7.181229282
1.7750,-7.262463814
1.7800,-7.344196901
1.7850,-7.426445503
1.7900,-7.508905179
1.7950,-7.591595918
1.8000,-7.674540853
1.8050,-7.757538556
1.8100,-7.840692918
1.8150,-7.923982284
1.8200,-8.007432166
1.8250,-8.090746238
1.8300,-8.173960316
1.8350,-8.256784608
1.8400,-8.339093594
1.8450,-8.420566897
1.8500,-8.501251692
1.8550,-8.580944321
1.8600,-8.659717414
1.8650,-8.737607643
1.8700,-8.814540248
1.8750,-8.890727632
1.8800,-8.965971638
1.8850,-9.040489154
1.8900,-9.114309649
1.8950,-9.187470374
1.9000,-9.260065455
1.9050,-9.332094765
1.9100,-9.403731408
1.9150,-9.474760125
1.9200,-9.545303526
1.9250,-9.615166021
1.9300,-9.684181233
1.9350,-9.752268991
1.9400,-9.819051112
1.9450,-9.884547538
1.9500,-9.948622035
1.9550,-10.0113009
1.9600,-10.07263963
1.9650,-10.13235322
1.9700,-10.19031424
1.9750,-10.24660797
1.9800,-10.30096834
1.9850,-10.35362968
1.9900,-10.40456251
1.9950,-10.45387385
2.0000,-10.50162296
2.0050,-10.54780689
2.0100,-10.59289634
2.0150,-10.63711614
2.0200,-10.68046279
2.0250,-10.72317775
2.0300,-10.76524645
2.0350,-10.80669538
2.0400,-10.84748059
2.0450,-10.88755337
2.0500,-10.92689976
2.0550,-10.96553684
2.0600,-11.00347331
2.0650,-11.0404718
2.0700,-11.07616614
2.0750,-11.1106511
2.0800,-11.14392167
2.0850,-11.17591212
2.0900,-11.2068231
2.0950,-11.23660385
2.1000,-11.26523929
2.1050,-11.29274619
2.1100,-11.31907269
2.1150,-11.3440259
2.1200,-11.36765361
2.1250,-11.39009597
2.1300,-11.41140389
2.1350,-11.43175222
2.1400,-11.45137336
2.1450,-11.47074989
2.1500,-11.48986734
2.1550,-11.50862035
2.1600,-11.52681935
2.1650,-11.54454709
2.1700,-11.56161681
2.1750,-11.57818432
2.1800,-11.59435627
2.1850,-11.61035747
2.1900,-11.62640968
2.1950,-11.64254273
2.2000,-11.65873951
2.2050,-11.67516249
2.2100,-11.69141638
2.2150,-11.70766347
2.2200,-11.72362369
2.2250,-11.73939906
2.2300,-11.75471054
2.2350,-11.76972992
2.2400,-11.78454909
2.2450,-11.79917342
2.2500,-11.81356486
2.2550,-11.82758249
2.2600,-11.84109687
2.2650,-11.85398122
2.2700,-11.86630874
2.2750,-11.87790672
2.2800,-11.88877292
2.2850,-11.89883589
2.2900,-11.90822434
2.2950,-11.91676238
2.3000,-11.92451039
2.3050,-11.93170156
2.3100,-11.93814462
2.3150,-11.94393635
2.3200,-11.94914606
2.3250,-11.95378967
2.3300,-11.95800681
2.3350,-11.96178444
2.3400,-11.96513108
2.3450,-11.96802731
2.3500,-11.97051398
2.3550,-11.97252189
2.3600,-11.97394898
2.3650,-11.97493614
2.3700,-11.9754663
2.3750,-11.97527474
2.3800,-11.97435414
2.3850,-11.97257272
2.3900,-11.96984517
2.3950,-11.9661254
2.4000,-11.96150359
2.4050,-11.95593502
2.4100,-11.94941652
2.4150,-11.94224169
2.4200,-11.93464815
2.4250,-11.9266324
2.4300,-11.91843919
2.4350,-11.91003238
2.4400,-11.90136215
2.4450,-11.89231043
2.4500,-11.88280381
2.4550,-11.87305048
2.4600,-11.86327978
2.4650,-11.85330252
2.4700,-11.84344498
2.4750,-11.83349913
2.4800,-11.82352957
2.4850,-11.81331861
2.4900,-11.8028154
2.4950,-11.79187971
2.5000,-11.78041813
2.5050,-11.76824009
2.5100,-11.75548009
2.5150,-11.74200112
2.5200,-11.72778179
2.5250,-11.71285369
2.5300,-11.69754169
2.5350,-11.68170907
2.5400,-11.66546739
2.5450,-11.64870126
2.5500,-11.63148731
2.5550,-11.6139634
2.5600,-11.59617218
2.5650,-11.578294
2.5700,-11.56020731
2.5750,-11.542053
2.5800,-11.52397178
2.5850,-11.50592441
2.5900,-11.48799972
2.5950,-11.4701858
2.6000,-11.45239988
2.6050,-11.43476612
2.6100,-11.41728536
2.6150,-11.400031
2.6200,-11.38302528
2.6250,-11.36637196
2.6300,-11.34991597
2.6350,-11.33370115
2.6400,-11.31778687
2.6450,-11.30219967
2.6500,-11.28682675
2.6550,-11.27136768
2.6600,-11.25595626
2.6650,-11.24049604
2.6700,-11.22505358
2.6750,-11.20959013
2.6800,-11.19427408
2.6850,-11.17919635
2.6900,-11.16426921
2.6950,-11.14970863
2.7000,-11.13540478
2.7050,-11.12146387
2.7100,-11.10778941
2.7150,-11.09438378
2.7200,-11.08094377
2.7250,-11.06747713
2.7300,-11.05385145
2.7350,-11.04015396
2.7400,-11.02622526
2.7450,-11.01212246
2.7500,-10.99788768
2.7550,-10.98355774
2.7600,-10.96895185
2.7650,-10.95421723
2.7700,-10.93922942
2.7750,-10.92381253
2.7800,-10.90805783
2.7850,-10.89198109
2.7900,-10.87555037
2.7950,-10.85888652
2.8000,-10.84194708
2.8050,-10.82484689
2.8100,-10.80775111
2.8150,-10.79062011
2.8200,-10.77373002
2.8250,-10.75706776
2.8300,-10.74041723
2.8350,-10.72386807
2.8400,-10.70726053
2.8450,-10.69085965
2.8500,-10.67451649
2.8550,-10.65838012
2.8600,-10.64241514
2.8650,-10.62673171
2.8700,-10.6111918
2.8750,-10.59606973
2.8800,-10.58105998
2.8850,-10.56608286
2.8900,-10.55106271
2.8950,-10.53603521
2.9000,-10.52092648
2.9050,-10.50561911
2.9100,-10.49016543
2.9150,-10.4747268
2.9200,-10.45953491
2.9250,-10.4445487
2.9300,-10.42983572
2.9350,-10.41543898
2.9400,-10.40121367
2.9450,-10.3872585
2.9500,-10.37351407
2.9550,-10.36008379
2.9600,-10.34673547
2.9650,-10.33341021
2.9700,-10.31986879
2.9750,-10.30633171
2.9800,-10.29237305
2.9850,-10.27800516
2.9900,-10.26342882
2.9950,-10.24819041
3.0000,-10.23239858
3.0050,-10.21598494
3.0100,-10.19898609
3.0150,-10.1812153
3.0200,-10.16264497
3.0250,-10.1435544
3.0300,-10.1237494
3.0350,-10.10305533
3.0400,-10.0820313
3.0450,-10.06070888
3.0500,-10.03908852
3.0550,-10.01723479
3.0600,-9.995398917
3.0650,-9.973447845
3.0700,-9.951285517
3.0750,-9.929208098
3.0800,-9.906870534
3.0850,-9.884287725
3.0900,-9.861340539
3.0950,-9.838107077
3.1000,-9.814461708
3.1050,-9.79034513
3.1100,-9.765767478
3.1150,-9.740793779
3.1200,-9.715215511
3.1250,-9.688958383
3.1300,-9.66212306
3.1350,-9.634672538
3.1400,-9.606778458
3.1450,-9.578628792
3.1500,-9.550427524
3.1550,-9.522002367
3.1600,-9.493332272
3.1650,-9.464352055
3.1700,-9.435289677
3.1750,-9.405720807
3.1800,-9.375888173
3.1850,-9.34596257
3.1900,-9.31569624
3.1950,-9.28492978
3.2000,-9.253504093
3.2050,-9.221472304
3.2100,-9.188713926
3.2150,-9.155088636
3.2200,-9.120369947
3.2250,-9.084637219
3.2300,-9.04771228
3.2350,-9.009611213
3.2400,-8.970370696
3.2450,-8.929977912
3.2500,-8.888405428
3.2550,-8.845881149
3.2600,-8.802400523
3.2650,-8.757858208
3.2700,-8.712639062
3.2750,-8.666737317
3.2800,-8.620584959
3.2850,-8.574190809
3.2900,-8.527613096
3.2950,-8.481113347
3.3000,-8.434658812
3.3050,-8.388186747
3.3100,-8.341755882
3.3150,-8.295352425
3.3200,-8.249296622
3.3250,-8.203336952
3.3300,-8.157528487
3.3350,-8.112042259
3.3400,-8.066581077
3.3450,-8.021139963
3.3500,-7.975790423
3.3550,-7.930531656
3.3600,-7.885247363
3.3650,-7.840103029
3.3700,-7.795383353
3.3750,-7.750860544
3.3800,-7.706812114
3.3850,-7.663254164
3.3900,-7.620123363
3.3950,-7.577357725
3.4000,-7.535026815
3.4050,-7.493243531
3.4100,-7.45207128
3.4150,-7.411528043
3.4200,-7.371663569
3.4250,-7.332538693
3.4300,-7.294150628
3.4350,-7.256595768
3.4400,-7.219799896
3.4450,-7.18319496
3.4500,-7.146687756
3.4550,-7.110038623
3.4600,-7.07300107
3.4650,-7.035539189
3.4700,-6.997580831
3.4750,-6.958896234
3.4800,-6.919353212
3.4850,-6.878604206
3.4900,-6.836617021
3.4950,-6.793482205
3.5000,-6.749110858
3.5050,-6.703301149
3.5100,-6.655919083
3.5150,-6.606789902
3.5200,-6.556091904
3.5250,-6.503777169
3.5300,-6.449889819
3.5350,-6.394719369
3.5400,-6.338441036
3.5450,-6.281069213
3.5500,-6.222751107
3.5550,-6.163597548
3.5600,-6.103757365
3.5650,-6.043592613
3.5700,-5.983102207
3.5750,-5.922360397
3.5800,-5.861247944
3.5850,-5.800007041
3.5900,-5.738751196
3.5950,-5.677772611
3.6000,-5.617159261
3.6050,-5.55697934
3.6100,-5.497180269
3.6150,-5.437709489
3.6200,-5.37831798
3.6250,-5.319096565
3.6300,-5.259989245
3.6350,-5.200885189
3.6400,-5.142022784
3.6450,-5.083491602
3.6500,-5.0254238
3.6550,-4.967869644
3.6600,-4.910946136
3.6650,-4.854890299
3.6700,-4.799593413
3.6750,-4.745058878
3.6800,-4.691426371
3.6850,-4.638646202
3.6900,-4.587018555
3.6950,-4.536332016
3.7000,-4.486632964
3.7050,-4.437858907
3.7100,-4.38989251
3.7150,-4.342587069
3.7200,-4.295928087
3.7250,-4.24965331
3.7300,-4.203566437
3.7350,-4.157292113
3.7400,-4.110349454
3.7450,-4.062295577
3.7500,-4.01288935
3.7550,-3.962032455
3.7600,-3.90953763
3.7650,-3.854902181
3.7700,-3.797764724
3.7750,-3.737896303
3.7800,-3.675074598
3.7850,-3.609081322
3.7900,-3.539842024
3.7950,-3.467163035
3.8000,-3.39110746
3.8050,-3.311790435
3.8100,-3.229373997
3.8150,-3.143841677
3.8200,-3.055255451
3.8250,-2.963661811
3.8300,-2.869144829
3.8350,-2.771609726
3.8400,-2.670916149
3.8450,-2.567337827
3.8500,-2.461169202
3.8550,-2.352670076
3.8600,-2.242008461
3.8650,-2.129557524
3.8700,-2.015823706
3.8750,-1.901059131
3.8800,-1.785534771
3.8850,-1.669350019
3.8900,-1.552639775
3.8950,-1.435644876
3.9000,-1.318563584
3.9050,-1.201789276
3.9100,-1.085660912
3.9150,-0.9708282405
3.9200,-0.8577187518
3.9250,-0.7466866246
3.9300,-0.6382619376
3.9350,-0.5325928708
3.9400,-0.4297689031
3.9450,-0.3300009427
3.9500,-0.2335464956
3.9550,-0.1405870687
3.9600,-0.05123081673
3.9650,0.03446873926
3.9700,0.1162351813
3.9750,0.1936211449
3.9800,0.2667791303
3.9850,0.3356920899
3.9900,0.4005965236
3.9950,0.4614128347
4.0000,0.5181069145
4.0050,0.5708412517
4.0100,0.6198264865
4.0150,0.6651305597
4.0200,0.707069362
4.0250,0.745820309
4.0300,0.7815879021
4.0350,0.8147496692
4.0400,0.8452105493
4.0450,0.8729988424
4.0500,0.8981819219
4.0550,0.9213309244
4.0600,0.9424244958
4.0650,0.9617407414
4.0700,0.979361208
4.0750,0.9952907703
4.0800,1.009807341
4.0850,1.02285525
4.0900,1.034652013
4.0950,1.045302284
4.1000,1.054923145
4.1050,1.063921426
4.1100,1.072179853
4.1150,1.07997041
4.1200,1.08747519
4.1250,1.094708614
4.1300,1.101754093
4.1350,1.10848319
4.1400,1.114691622
4.1450,1.120517632
4.1500,1.125907151
4.1550,1.131119158
4.1600,1.135747192
4.1650,1.139992315
4.1700,1.144141085
4.1750,1.148294803
4.1800,1.152334469
4.1850,1.156169852
4.1900,1.159994472
4.1950,1.16375505
4.2000,1.1672992
4.2050,1.170646918
4.2100,1.173866104
4.2150,1.176994481
4.2200,1.180025672
4.2250,1.182920463
4.2300,1.185715982
4.2350,1.188289574
4.2400,1.190533705
4.2450,1.192512611
4.2500,1.194230202
4.2550,1.195575817
4.2600,1.196352038
4.2650,1.19657663
4.2700,1.196141817
4.2750,1.195334059
4.2800,1.19403951
4.2850,1.191977298
4.2900,1.189231588
4.2950,1.185664495
4.3000,1.181499538
4.3050,1.176629881
4.3100,1.171064471
4.3150,1.16505402
4.3200,1.158469916
4.3250,1.151323181
4.3300,1.143635545
4.3350,1.135361194
4.3400,1.126740936
4.3450,1.117696825
4.3500,1.108380778
4.3550,1.098644198
4.3600,1.088422304
4.3650,1.07764442
4.3700,1.066288561
4.3750,1.054248164
4.3800,1.041552583
4.3850,1.028189593
4.3900,1.014030472
4.3950,0.9989745386
4.4000,0.9829675292
4.4050,0.9660304851
4.4100,0.9482387989
4.4150,0.9293866338
4.4200,0.9094650691
4.4250,0.8884936248
4.4300,0.8663531825
4.4350,0.8433736767
4.4400,0.8196452573
4.4450,0.7952322085
4.4500,0.7703389339
4.4550,0.7448914837
4.4600,0.7191533073
4.4650,0.6934210867
4.4700,0.6675346243
4.4750,0.6414661122
4.4800,0.6153381643
4.4850,0.5891258462
4.4900,0.5627246
4.4950,0.5363322255
4.5000,0.5098906621
4.5050,0.4834683005
4.5100,0.4569197375
4.5150,0.4303458417
4.5200,0.4038016613
4.5250,0.3771783338
4.5300,0.3505648151
4.5350,0.323711363
4.5400,0.2968674087
4.5450,0.269783007
4.5500,0.2424436489
4.5550,0.2148572022
4.5600,0.1871939943
4.5650,0.1595227194
4.5700,0.1318383795
4.5750,0.1040117184
4.5800,0.07591437853
4.5850,0.0478769575
4.5900,0.01964307581
4.5950,-0.008783545421
4.6000,-0.03736710192
4.6050,-0.06614456859
4.6100,-0.09514539738
4.6150,-0.1246066965
4.6200,-0.1544280352
4.6250,-0.1847004393
4.6300,-0.2153908059
4.6350,-0.2465596665
4.6400,-0.2781777
4.6450,-0.3103603651
4.6500,-0.3431188154
4.6550,-0.3764650665
4.6600,-0.4102781162
4.6650,-0.4445372036
4.6700,-0.4792632499
4.6750,-0.5143321449
4.6800,-0.5500935024
4.6850,-0.5865156999
4.6900,-0.6235124284
4.6950,-0.6609152504
4.7000,-0.6986663276
4.7050,-0.7369495739
4.7100,-0.7754542178
4.7150,-0.8141677431
4.7200,-0.8529028359
4.7250,-0.8915548192
4.7300,-0.9299631801
4.7350,-0.9681007262
4.7400,-1.006211675
4.7450,-1.044040764
4.7500,-1.081738899
4.7550,-1.119046016
4.7600,-1.155712207
4.7650,-1.192129921
4.7700,-1.227918806
4.7750,-1.263074288
4.7800,-1.2976052
4.7850,-1.331208972
4.7900,-1.363994236
4.7950,-1.395825149
4.8000,-1.426755571
4.8050,-1.456713353
4.8100,-1.485704109
4.8150,-1.513527037
4.8200,-1.540383765
4.8250,-1.565961414
4.8300,-1.590143372
4.8350,-1.612932034
4.8400,-1.634526484
4.8450,-1.654694811
4.8500,-1.673571052
4.8550,-1.691069637
4.8600,-1.707369329
4.8650,-1.722694842
4.8700,-1.736795515
4.8750,-1.749910059
4.8800,-1.761793038
4.8850,-1.772701131
4.8900,-1.782647938
4.8950,-1.79165979
4.9000,-1.800074489
4.9050,-1.80775643
4.9100,-1.814733563
4.9150,-1.821020344
4.9200,-1.826547132
4.9250,-1.831342688
4.9300,-1.835418933
4.9350,-1.838858561
4.9400,-1.841829537
4.9450,-1.844366399
4.9500,-1.846644047
4.9550,-1.848596617
4.9600,-1.850146019
4.9650,-1.851560762
4.9700,-1.852646293
4.9750,-1.853345708
4.9800,-1.853622037
4.9850,-1.85326912
4.9900,-1.852475113
4.9950,-1.851171752
5.0000,-1.84937401
5.0050,-1.847129036
5.0100,-1.844490909
5.0150,-1.841530389
5.0200,-1.838189354
5.0250,-1.834572543
5.0300,-1.830798201
5.0350,-1.826887386
5.0400,-1.822565731
5.0450,-1.818031045
5.0500,-1.81318429
5.0550,-1.808072201
5.0600,-1.802856574
5.0650,-1.797401413
5.0700,-1.791737512
5.0750,-1.78605916
5.0800,-1.780525914
5.0850,-1.775431178
5.0900,-1.77085482
5.0950,-1.766930354
5.1000,-1.763564776
5.1050,-1.761022852
5.1100,-1.759174397
5.1150,-1.758265158
5.1200,-1.75819011
5.1250,-1.759059752
5.1300,-1.761129006
5.1350,-1.764314938
5.1400,-1.768774476
5.1450,-1.774518913
5.1500,-1.781646442
5.1550,-1.790427871
5.1600,-1.800703519
5.1650,-1.812553782
5.1700,-1.826248768
5.1750,-1.841653886
5.1800,-1.858787495
5.1850,-1.877681153
5.1900,-1.898150063
5.1950,-1.920180214
5.2000,-1.943669984
5.2050,-1.968625957
5.2100,-1.994984749
5.2150,-2.022804843
5.2200,-2.052155182
5.2250,-2.083075004
5.2300,-2.115613284
5.2350,-2.149827316
5.2400,-2.18573689
5.2450,-2.223184347
5.2500,-2.261798217
5.2550,-2.301609805
5.2600,-2.34268906
5.2650,-2.384774497
5.2700,-2.428042937
5.2750,-2.472575845
5.2800,-2.518423759
5.2850,-2.565727132
5.2900,-2.614243545
5.2950,-2.664111457
5.3000,-2.715335592
5.3050,-2.767698718
5.3100,-2.821038552
5.3150,-2.875056568
5.3200,-2.929839987
5.3250,-2.98490317
5.3300,-3.040044664
5.3350,-3.095203349
5.3400,-3.150367645
5.3450,-3.205483732
5.3500,-3.260522988
5.3550,-3.315629499
5.3600,-3.370713892
5.3650,-3.425653236
5.3700,-3.480562462
5.3750,-3.535547507
5.3800,-3.590417684
5.3850,-3.645275963
5.3900,-3.700026725
5.3950,-3.755030889
5.4000,-3.810356627
5.4050,-3.866113816
5.4100,-3.922550901
5.4150,-3.979652061
5.4200,-4.037531531
5.4250,-4.096195603
5.4300,-4.155577118
5.4350,-4.215639229
5.4400,-4.27598496
5.4450,-4.336512711
5.4500,-4.396920389
5.4550,-4.456816609
5.4600,-4.516224879
5.4650,-4.574728543
5.4700,-4.632169355
5.4750,-4.688457343
5.4800,-4.743680773
5.4850,-4.797883413
5.4900,-4.851201937
5.4950,-4.903506509
5.5000,-4.954871428
5.5050,-5.00543574
5.5100,-5.055274609
5.5150,-5.10423875
5.5200,-5.152535001
5.5250,-5.200116339
5.5300,-5.247087506
5.5350,-5.293360783
5.5400,-5.339047116
5.5450,-5.384497822
5.5500,-5.429867353
5.5550,-5.475397377
5.5600,-5.521200423
5.5650,-5.567418192
5.5700,-5.613895599
5.5750,-5.660794422
5.5800,-5.708000107
5.5850,-5.75538522
5.5900,-5.803154068
5.5950,-5.851228276
5.6000,-5.89948584
5.6050,-5.948005276
5.6100,-5.996920598
5.6150,-6.046128698
5.6200,-6.095553649
5.6250,-6.145483181
5.6300,-6.195997639
5.6350,-6.246922921
5.6400,-6.298151142
5.6450,-6.349921846
5.6500,-6.402136951
5.6550,-6.454783174
5.6600,-6.507977681
5.6650,-6.561758365
5.6700,-6.616217656
5.6750,-6.671080332
5.6800,-6.726479378
5.6850,-6.782182851
5.6900,-6.83828641
5.6950,-6.89436585
5.7000,-6.950310401
5.7050,-7.006087561
5.7100,-7.061563748
5.7150,-7.116830787
5.7200,-7.171777803
5.7250,-7.226408919
5.7300,-7.280872656
5.7350,-7.335044003
5.7400,-7.389022801
5.7450,-7.442852195
5.7500,-7.496309152
5.7550,-7.549436905
5.7600,-7.601974316
5.7650,-7.653967249
5.7700,-7.705232708
5.7750,-7.755548007
5.7800,-7.804825854
5.7850,-7.852726407
5.7900,-7.899315863
5.7950,-7.944942476
5.8000,-7.989612344
5.8050,-8.03348173
5.8100,-8.076603952
5.8150,-8.119327753
5.8200,-8.161728912
5.8250,-8.204046841
5.8300,-8.246503494
5.8350,-8.289252049
5.8400,-8.33225477
5.8450,-8.375356697
5.8500,-8.418758863
5.8550,-8.462426249
5.8600,-8.50620244
5.8650,-8.550216961
5.8700,-8.594472842
5.8750,-8.638751582
5.8800,-8.683023177
5.8850,-8.727297292
5.8900,-8.771293511
5.8950,-8.815075231
5.9000,-8.858542569
5.9050,-8.901427109
5.9100,-8.943626748
5.9150,-8.985130901
5.9200,-9.025698184
5.9250,-9.065406013
5.9300,-9.104206297
5.9350,-9.142219927
5.9400,-9.17950757
5.9450,-9.215979485
5.9500,-9.251739521
5.9550,-9.287028972
5.9600,-9.3217013
5.9650,-9.355797582
5.9700,-9.389416278
5.9750,-9.422656816
5.9800,-9.45548935
5.9850,-9.488065193
5.9900,-9.520240996
5.9950,-9.552279906
6.0000,-9.584140612
6.0050,-9.61561804
6.0100,-9.646823887
6.0150,-9.677661241
6.0200,-9.708149111
6.0250,-9.738446358
6.0300,-9.768520827
6.0350,-9.798329171
6.0400,-9.828127322
6.0450,-9.857677511
6.0500,-9.887097455
6.0550,-9.916379855
6.0600,-9.945789839
6.0650,-9.975244276
6.0700,-10.00478785
6.0750,-10.03435965
6.0800,-10.06386368
6.0850,-10.09332724
6.0900,-10.12271674
6.0950,-10.15172717
6.1000,-10.18042193
6.1050,-10.20843945
6.1100,-10.23576784
6.1150,-10.26238345
6.1200,-10.28803624
6.1250,-10.31276989
6.1300,-10.33652338
6.1350,-10.35938586
6.1400,-10.38149616
6.1450,-10.40297549
6.1500,-10.42393648
6.1550,-10.44457188
6.1600,-10.46518123
6.1650,-10.48592237
6.1700,-10.5069561
6.1750,-10.52847951
6.1800,-10.55058002
6.1850,-10.57337612
6.1900,-10.59693099
6.1950,-10.6211856
6.2000,-10.64601667
6.2050,-10.67152439
6.2100,-10.69781689
6.2150,-10.72503407
6.2200,-10.75326456
6.2250,-10.78230471
6.2300,-10.81224293
6.2350,-10.84315313
6.2400,-10.87483625
6.2450,-10.90729346
6.2500,-10.94027626
6.2550,-10.97346296
6.2600,-11.00677536
6.2650,-11.04017519
6.2700,-11.07337855
6.2750,-11.10635273
6.2800,-11.13911402
6.2850,-11.17165765
6.2900,-11.20409685
6.2950,-11.23643437
6.3000,-11.26882213
6.3050,-11.30128992
6.3100,-11.33377025
6.3150,-11.36633686
6.3200,-11.39885716
6.3250,-11.43106161
6.3300,-11.46278469
6.3350,-11.49403255
6.3400,-11.52440109
6.3450,-11.55397538
6.3500,-11.58262607
6.3550,-11.61043701
6.3600,-11.63745929
6.3650,-11.66378231
6.3700,-11.68959208
6.3750,-11.71525973
6.3800,-11.74109281
6.3850,-11.76715119
6.3900,-11.79340482
6.3950,-11.81982651
6.4000,-11.84619549
6.4050,-11.87283234
6.4100,-11.89973694
6.4150,-11.92664986
6.4200,-11.95404904
6.4250,-11.98173645
6.4300,-12.00983669
6.4350,-12.03847052
6.4400,-12.06782528
6.4450,-12.09803554
6.4500,-12.12912703
6.4550,-12.16092775
6.4600,-12.19335567
6.4650,-12.22630656
6.4700,-12.25952275
6.4750,-12.29299067
6.4800,-12.3263334
6.4850,-12.35949766
6.4900,-12.3922375
6.4950,-12.42473017
6.5000,-12.45690677
6.5050,-12.48886046
6.5100,-12.5203766
6.5150,-12.55146628
6.5200,-12.58213965
6.5250,-12.6121598
6.5300,-12.64132768
6.5350,-12.66957365
6.5400,-12.6966845
6.5450,-12.72239835
6.5500,-12.74659048
6.5550,-12.76928169
6.5600,-12.79065472
6.5650,-12.81085668
6.5700,-12.82995845
6.5750,-12.84819957
6.5800,-12.86582832
6.5850,-12.88306412
6.5900,-12.90012058
6.5950,-12.91726894
6.6000,-12.93452559
6.6050,-12.95197355
6.6100,-12.96972702
6.6150,-12.98758734
6.6200,-13.00546904
6.6250,-13.02323989
6.6300,-13.04087749
6.6350,-13.05824715
6.6400,-13.07513516
6.6450,-13.09162693
6.6500,-13.10764165
6.6550,-13.12311248
6.6600,-13.13771644
6.6650,-13.15152144
6.6700,-13.16452084
6.6750,-13.17672736
6.6800,-13.18796908
6.6850,-13.19829221
6.6900,-13.20770668
6.6950,-13.21649143
6.7000,-13.22469867
6.7050,-13.23223896
6.7100,-13.23923588
6.7150,-13.2459783
6.7200,-13.25233735
6.7250,-13.25855612
6.7300,-13.26491747
6.7350,-13.2714262
6.7400,-13.27819198
6.7450,-13.28502501
6.7500,-13.29202984
6.7550,-13.29904305
6.7600,-13.30597864
6.7650,-13.31249198
6.7700,-13.31886579
6.7750,-13.3247507
6.7800,-13.33028989
6.7850,-13.33534732
6.7900,-13.3400624
6.7950,-13.34415988
6.8000,-13.34777069
6.8050,-13.35061961
6.8100,-13.35276103
6.8150,-13.35391104
6.8200,-13.35397779
6.8250,-13.35290389
6.8300,-13.35076388
6.8350,-13.34721792
6.8400,-13.34241683
6.8450,-13.33630076
6.8500,-13.32883937
6.8550,-13.32008994
6.8600,-13.30998829
6.8650,-13.29854068
6.8700,-13.28596114
6.8750,-13.27232404
6.8800,-13.25754966
6.8850,-13.24163445
6.8900,-13.22441182
6.8950,-13.20539241
6.9000,-13.18470666
6.9050,-13.16257457
6.9100,-13.13872845
6.9150,-13.11358289
6.9200,-13.08744831
6.9250,-13.06063095
6.9300,-13.03326911
6.9350,-13.00572173
6.9400,-12.97855738
6.9450,-12.95179881
6.9500,-12.9256754
6.9550,-12.9000472
6.9600,-12.87505557
6.9650,-12.85050199
6.9700,-12.82625005
6.9750,-12.80199811
6.9800,-12.77778041
6.9850,-12.75382989
6.9900,-12.72995773
6.9950,-12.7062822
7.0000,-12.68303253
7.0050,-12.66049098
7.0100,-12.63891182
7.0150,-12.61852937
7.0200,-12.5995635
7.0250,-12.58217864
7.0300,-12.56641185
7.0350,-12.55233439
7.0400,-12.53988716
7.0450,-12.52920245
7.0500,-12.52004055
7.0550,-12.512685
7.0600,-12.50720431
7.0650,-12.50387147
7.0700,-12.5025188
7.0750,-12.50339566
7.0800,-12.50646886
7.0850,-12.51168289
7.0900,-12.51914308
7.0950,-12.52890025
7.1000,-12.54073883
7.1050,-12.55484718
7.1100,-12.57094142
7.1150,-12.58896678
7.1200,-12.60874373
7.1250,-12.63023473
7.1300,-12.65310881
7.1350,-12.6773128
7.1400,-12.70279014
7.1450,-12.72937344
7.1500,-12.75711613
7.1550,-12.78602505
7.1600,-12.81601136
7.1650,-12.84700113
7.1700,-12.87878986
7.1750,-12.91126232
7.1800,-12.94413135
7.1850,-12.97715797
7.1900,-13.01030049
7.1950,-13.04341826
7.2000,-13.07621383
7.2050,-13.10823352
7.2100,-13.13943803
7.2150,-13.16934101
7.2200,-13.19763468
7.2250,-13.22410395
7.2300,-13.24855795
7.2350,-13.27085056
7.2400,-13.29065954
7.2450,-13.30804105
7.2500,-13.32303255
7.2550,-13.33583299
7.2600,-13.34652664
7.2650,-13.35527994
7.2700,-13.36219861
7.2750,-13.36751693
7.2800,-13.37121158
7.2850,-13.37323599
7.2900,-13.37388221
7.2950,-13.37336381
7.3000,-13.37169641
7.3050,-13.36899866
7.3100,-13.36523202
7.3150,-13.36051989
7.3200,-13.35480928
7.3250,-13.3479352
7.3300,-13.33990448
7.3350,-13.33069219
7.3400,-13.32043875
7.3450,-13.30906397
7.3500,-13.29672708
7.3550,-13.28347634
7.3600,-13.26935972
7.3650,-13.25424959
7.3700,-13.23842876
7.3750,-13.22203778
7.3800,-13.20525301
7.3850,-13.18815351
7.3900,-13.17096415
7.3950,-13.15361614
7.4000,-13.13632398
7.4050,-13.11894604
7.4100,-13.10160883
7.4150,-13.08432714
7.4200,-13.0672671
7.4250,-13.05035776
7.4300,-13.03370541
7.4350,-13.01744309
7.4400,-13.00146832
7.4450,-12.9859519
7.4500,-12.9710094
7.4550,-12.95639798
7.4600,-12.94223388
7.4650,-12.92856918
7.4700,-12.91537296
7.4750,-12.90247804
7.4800,-12.89009068
7.4850,-12.87798756
7.4900,-12.86622926
7.4950,-12.85469276
7.5000,-12.84337385
7.5050,-12.83213975
7.5100,-12.82099367
7.5150,-12.80997485
7.5200,-12.79916093
7.5250,-12.78853947
7.5300,-12.77813886
7.5350,-12.76775463
7.5400,-12.7576309
7.5450,-12.74752939
7.5500,-12.73737536
7.5550,-12.72696167
7.5600,-12.71608498
7.5650,-12.70470152
7.5700,-12.69269649
7.5750,-12.68003343
7.5800,-12.66663251
7.5850,-12.65264284
7.5900,-12.63813988
7.5950,-12.62305898
7.6000,-12.60735865
7.6050,-12.59120968
7.6100,-12.57474961
7.6150,-12.55790682
7.6200,-12.54087736
7.6250,-12.52387508
7.6300,-12.50667827
7.6350,-12.48941202
7.6400,-12.47179628
7.6450,-12.4538534
7.6500,-12.43556334
7.6550,-12.41698223
7.6600,-12.39806781
7.6650,-12.37905962
7.6700,-12.35990711
7.6750,-12.34058355
7.6800,-12.32103191
7.6850,-12.30156894
7.6900,-12.28188589
7.6950,-12.26188051
7.7000,-12.24171278
7.7050,-12.22129105
7.7100,-12.20047345
7.7150,-12.1793073
7.7200,-12.1576292
7.7250,-12.13542438
7.7300,-12.11269151
7.7350,-12.08932191
7.7400,-12.0655034
7.7450,-12.04122682
7.7500,-12.01652247
7.7550,-11.99159678
7.7600,-11.96656153
7.7650,-11.94118246
7.7700,-11.91574051
7.7750,-11.89029694
7.7800,-11.86470361
7.7850,-11.83937011
7.7900,-11.81416212
7.7950,-11.78935766
7.8000,-11.76488873
7.8050,-11.74102281
7.8100,-11.71765885
7.8150,-11.6950055
7.8200,-11.67275945
7.8250,-11.65110245
7.8300,-11.62995223
7.8350,-11.60944011
7.8400,-11.58918373
7.8450,-11.56936025
7.8500,-11.54978004
7.8550,-11.53061686
7.8600,-11.51200052
7.8650,-11.49397328
7.8700,-11.47665161
7.8750,-11.46009357
7.8800,-11.44439575
7.8850,-11.42955478
7.8900,-11.4156163
7.8950,-11.40243663
7.9000,-11.39025322
7.9050,-11.37902596
7.9100,-11.36884913
7.9150,-11.35976474
7.9200,-11.35164831
7.9250,-11.34455085
7.9300,-11.33836278
7.9350,-11.33296532
7.9400,-11.32841403
7.9450,-11.32476004
7.9500,-11.32197684
7.9550,-11.31996264
7.9600,-11.31886575
7.9650,-11.31853943
7.9700,-11.31915099
7.9750,-11.320547
7.9800,-11.32260396
7.9850,-11.32520933
7.9900,-11.32832271
7.9950,-11.33219243
8.0000,-11.33646413
8.0050,-11.34142036
8.0100,-11.34710103
8.0150,-11.35360631
8.0200,-11.36100697
8.0250,-11.36938935
8.0300,-11.37862584
8.0350,-11.38878341
8.0400,-11.39978663
8.0450,-11.41165721
8.0500,-11.42430139
8.0550,-11.43764184
8.0600,-11.45141042
8.0650,-11.46580769
8.0700,-11.48066786
8.0750,-11.49594943
8.0800,-11.51168182
8.0850,-11.52762661
8.0900,-11.54382835
8.0950,-11.56031005
8.1000,-11.57708778
8.1050,-11.59409544
8.1100,-11.61131385
8.1150,-11.62872285
8.1200,-11.6465219
8.1250,-11.6646415
8.1300,-11.68302867
8.1350,-11.70179543
8.1400,-11.72109148
8.1450,-11.74098483
8.1500,-11.76171496
8.1550,-11.78325964
8.1600,-11.80579199
8.1650,-11.82920273
8.1700,-11.85355582
8.1750,-11.87880851
8.1800,-11.90510285
8.1850,-11.93230362
8.1900,-11.96037041
8.1950,-11.98958905
8.2000,-12.01983124
8.2050,-12.05094334
8.2100,-12.08281016
8.2150,-12.11551097
8.2200,-12.14916198
8.2250,-12.18366758
8.2300,-12.21896864
8.2350,-12.25531441
8.2400,-12.29267432
8.2450,-12.33117556
8.2500,-12.37069361
8.2550,-12.41127735
8.2600,-12.45279434
8.2650,-12.4952951
8.2700,-12.53858114
8.2750,-12.58274406
8.2800,-12.62788505
8.2850,-12.6736812
8.2900,-12.72017731
8.2950,-12.76720981
8.3000,-12.81488184
8.3050,-12.86288013
8.3100,-12.91107126
8.3150,-12.95934924
8.3200,-13.00767852
8.3250,-13.05582472
8.3300,-13.10376759
8.3350,-13.15149318
8.3400,-13.19885453
8.3450,-13.24577297
8.3500,-13.292335
8.3550,-13.33848304
8.3600,-13.38445759
8.3650,-13.43009127
8.3700,-13.47528316
8.3750,-13.52011336
8.3800,-13.56437404
8.3850,-13.608103
8.3900,-13.65118507
8.3950,-13.69341175
8.4000,-13.73474783
8.4050,-13.77518183
8.4100,-13.81463094
8.4150,-13.8530341
8.4200,-13.89024823
8.4250,-13.92629201
8.4300,-13.96113048
8.4350,-13.99468471
8.4400,-14.02688955
8.4450,-14.05775338
8.4500,-14.08728559
8.4550,-14.11552696
8.4600,-14.14250322
8.4650,-14.16851392
8.4700,-14.19353502
8.4750,-14.21768897
8.4800,-14.24114443
8.4850,-14.26395611
8.4900,-14.28631185
8.4950,-14.30817863
8.5000,-14.32982296
8.5050,-14.35125453
8.5100,-14.37266879
8.5150,-14.39395795
8.5200,-14.41511228
8.5250,-14.43625979
8.5300,-14.45771236
8.5350,-14.47910857
8.5400,-14.5006342
8.5450,-14.52222301
8.5500,-14.54384012
8.5550,-14.56542541
8.5600,-14.5869225
8.5650,-14.60843075
8.5700,-14.62976884
8.5750,-14.65085171
8.5800,-14.67184079
8.5850,-14.6927256
8.5900,-14.71352113
8.5950,-14.73426165
8.6000,-14.7546622
8.6050,-14.77479143
8.6100,-14.79461678
8.6150,-14.81392768
8.6200,-14.83245896
8.6250,-14.85049587
8.6300,-14.86775206
8.6350,-14.88423168
8.6400,-14.90010407
8.6450,-14.91533971
8.6500,-14.92987175
8.6550,-14.94359376
8.6600,-14.9563128
8.6650,-14.96796601
8.6700,-14.97865179
8.6750,-14.98810801
8.6800,-14.99654359
8.6850,-15.00383639
8.6900,-15.01002864
8.6950,-15.01518429
8.7000,-15.01935755
8.7050,-15.02253794
8.7100,-15.02503947
8.7150,-15.02681107
8.7200,-15.02807052
8.7250,-15.0288177
8.7300,-15.02925238
8.7350,-15.02933982
8.7400,-15.02921804
8.7450,-15.0287192
8.7500,-15.02794678
8.7550,-15.02686622
8.7600,-15.02545998
8.7650,-15.02383938
8.7700,-15.02194386
8.7750,-15.01989115
8.7800,-15.01765551
8.7850,-15.01522225
8.7900,-15.01245649
8.7950,-15.00927887
8.8000,-15.00565397
8.8050,-15.00151516
8.8100,-14.99683412
8.8150,-14.99156042
8.8200,-14.98568347
8.8250,-14.97901157
8.8300,-14.97155122
8.8350,-14.96358916
8.8400,-14.95501142
8.8450,-14.94578394
8.8500,-14.93618748
8.8550,-14.92616658
8.8600,-14.91583916
8.8650,-14.90519364
8.8700,-14.89433142
8.8750,-14.88339681
8.8800,-14.87242251
8.8850,-14.86164737
8.8900,-14.85093271
8.8950,-14.8404095
8.9000,-14.83024874
8.9050,-14.82030318
8.9100,-14.81053568
8.9150,-14.80105756
8.9200,-14.79191073
8.9250,-14.782864
8.9300,-14.77398674
8.9350,-14.76514303
8.9400,-14.75622784
8.9450,-14.74719518
8.9500,-14.73807074
8.9550,-14.72877866
8.9600,-14.71936062
8.9650,-14.70985756
8.9700,-14.70005209
8.9750,-14.69024539
8.9800,-14.68024004
8.9850,-14.6701554
8.9900,-14.65985982
8.9950,-14.64938293
9.0000,-14.63889256
9.0050,-14.62832392
9.0100,-14.61753674
9.0150,-14.6065038
9.0200,-14.59545304
9.0250,-14.58418989
9.0300,-14.57279265
9.0350,-14.56110044
9.0400,-14.54912508
9.0450,-14.53704539
9.0500,-14.52476556
9.0550,-14.5124485
9.0600,-14.50009338
9.0650,-14.48744325
9.0700,-14.47476747
9.0750,-14.46196832
9.0800,-14.44874956
9.0850,-14.43530749
9.0900,-14.42146458
9.0950,-14.40740651
9.1000,-14.39276999
9.1050,-14.37775344
9.1100,-14.36223655
9.1150,-14.34611608
9.1200,-14.32946549
9.1250,-14.3122959
9.1300,-14.29462398
9.1350,-14.27632812
9.1400,-14.25745876
9.1450,-14.23801872
9.1500,-14.21784002
9.1550,-14.19719498
9.1600,-14.17612638
9.1650,-14.15447644
9.1700,-14.13246258
9.1750,-14.11016894
9.1800,-14.08735635
9.1850,-14.0640785
9.1900,-14.04053138
9.1950,-14.01660017
9.2000,-13.9923851
9.2050,-13.96800733
9.2100,-13.94366919
9.2150,-13.91917985
9.2200,-13.89460072
9.2250,-13.86971438
9.2300,-13.84480459
9.2350,-13.81993661
9.2400,-13.79505927
9.2450,-13.77023459
9.2500,-13.74545256
9.2550,-13.72087635
9.2600,-13.69653723
9.2650,-13.67260232
9.2700,-13.64933571
9.2750,-13.62646675
9.2800,-13.60420892
9.2850,-13.58250422
9.2900,-13.56162335
9.2950,-13.54154997
9.3000,-13.52213653
9.3050,-13.5032876
9.3100,-13.48503191
9.3150,-13.46728417
9.3200,-13.44989892
9.3250,-13.43293791
9.3300,-13.41608381
9.3350,-13.39954455
9.3400,-13.3831498
9.3450,-13.36694679
9.3500,-13.35083924
9.3550,-13.33494293
9.3600,-13.31899693
9.3650,-13.3029591
9.3700,-13.28663244
9.3750,-13.26976178
9.3800,-13.25255342
9.3850,-13.23470773
9.3900,-13.21641022
9.3950,-13.1971214
9.4000,-13.17704492
9.4050,-13.15616175
9.4100,-13.13447804
9.4150,-13.11219551
9.4200,-13.08907425
9.4250,-13.06527098
9.4300,-13.04062465
9.4350,-13.01525822
9.4400,-12.98878059
9.4450,-12.96121736
9.4500,-12.93270789
9.4550,-12.90315626
9.4600,-12.87242121
9.4650,-12.84056794
9.4700,-12.80755281
9.4750,-12.77328245
9.4800,-12.73788008
9.4850,-12.70141266
9.4900,-12.66381928
9.4950,-12.62538412
9.5000,-12.58618838
9.5050,-12.54637903
9.5100,-12.50599093
9.5150,-12.46535255
9.5200,-12.42469486
9.5250,-12.38420678
9.5300,-12.34395636
9.5350,-12.30395994
9.5400,-12.26433427
9.5450,-12.22502857
9.5500,-12.18625727
9.5550,-12.14826085
9.5600,-12.11110351
9.5650,-12.07475598
9.5700,-12.03931931
9.5750,-12.00485213
9.5800,-11.97120492
9.5850,-11.93836086
9.5900,-11.90623373
9.5950,-11.8747446
9.6000,-11.84392801
9.6050,-11.8136817
9.6100,-11.78413686
9.6150,-11.75502514
9.6200,-11.72624418
9.6250,-11.6977576
9.6300,-11.66955784
9.6350,-11.6415384
9.6400,-11.61368202
9.6450,-11.58584772
9.6500,-11.55779022
9.6550,-11.52935145
9.6600,-11.50051215
9.6650,-11.47134091
9.6700,-11.44168694
9.6750,-11.41179823
9.6800,-11.38160633
9.6850,-11.35128061
9.6900,-11.32077798
9.6950,-11.29043209
9.7000,-11.26036295
9.7050,-11.23039986
9.7100,-11.20045168
9.7150,-11.1705589
9.7200,-11.14053665
9.7250,-11.11008337
9.7300,-11.07929038
9.7350,-11.04788845
9.7400,-11.01608688
9.7450,-10.98403732
9.7500,-10.95150029
9.7550,-10.91849724
9.7600,-10.8850834
9.7650,-10.85130991
9.7700,-10.81704919
9.7750,-10.78220219
9.7800,-10.74689376
9.7850,-10.71104171
9.7900,-10.67473108
9.7950,-10.63771051
9.8000,-10.59997295
9.8050,-10.56142867
9.8100,-10.52215496
9.8150,-10.48209241
9.8200,-10.4410907
9.8250,-10.39942428
9.8300,-10.35698697
9.8350,-10.31382541
9.8400,-10.27004114
9.8450,-10.22571365
9.8500,-10.18073142
9.8550,-10.13485041
9.8600,-10.08817942
9.8650,-10.04066266
9.8700,-9.992271368
9.8750,-9.943014867
9.8800,-9.892977232
9.8850,-9.84244093
9.8900,-9.791370563
9.8950,-9.739921069
9.9000,-9.687987541
9.9050,-9.636001234
9.9100,-9.583665773
9.9150,-9.531541463
9.9200,-9.479560808
9.9250,-9.427760126
9.9300,-9.376334135
9.9350,-9.325421617
9.9400,-9.275204797
9.9450,-9.225552057
9.9500,-9.177059596
9.9550,-9.129590785
9.9600,-9.083497847
9.9650,-9.03874307
9.9700,-8.995490092
9.9750,-8.953652096
9.9800,-8.91313357
9.9850,-8.873961556
9.9900,-8.836401157
9.9950,-8.80034598
10.0000,-8.765867661
10.0050,-8.733228049
10.0100,-8.702289945
10.0150,-8.673065559
10.0200,-8.645863635
10.0250,-8.62077357
10.0300,-8.597508126
10.0350,-8.576275822
10.0400,-8.556873687
10.0450,-8.539060642
10.0500,-8.522826993
10.0550,-8.507676398
10.0600,-8.493596465
10.0650,-8.480501169
10.0700,-8.468183029
10.0750,-8.456567136
10.0800,-8.445333513
10.0850,-8.434447547
10.0900,-8.423866998
10.0950,-8.413654995
10.1000,-8.403717702
10.1050,-8.394027974
10.1100,-8.38463984
10.1150,-8.375359618
10.1200,-8.36609758
10.1250,-8.356665041
10.1300,-8.3468106
10.1350,-8.33655937
10.1400,-8.325657802
10.1450,-8.313949228
10.1500,-8.301317171
10.1550,-8.28784793
10.1600,-8.27333536
10.1650,-8.257810829
10.1700,-8.241004277
10.1750,-8.222848196
10.1800,-8.203406407
10.1850,-8.182179508
10.1900,-8.159184727
10.1950,-8.134420884
10.2000,-8.108028776
10.2050,-8.079979171
10.2100,-8.050623623
10.2150,-8.019892581
10.2200,-7.987893261
10.2250,-7.954826081
10.2300,-7.921127254
10.2350,-7.886833637
10.2400,-7.852126582
10.2450,-7.817494932
10.2500,-7.782770604
10.2550,-7.748115683
10.2600,-7.713348048
10.2650,-7.678623204
10.2700,-7.643987582
10.2750,-7.609628405
10.2800,-7.575741304
10.2850,-7.542333658
10.2900,-7.509369773
10.2950,-7.47700317
10.3000,-7.445163199
10.3050,-7.413785838
10.3100,-7.382946209
10.3150,-7.352631689
10.3200,-7.322779333
10.3250,-7.293564594
10.3300,-7.265050149
10.3350,-7.237243761
10.3400,-7.210211336
10.3450,-7.183920814
10.3500,-7.15841092
10.3550,-7.134091355
10.3600,-7.110860202
10.3650,-7.088731187
10.3700,-7.067853401
10.3750,-7.048522978
10.3800,-7.030658799
10.3850,-7.014324634
10.3900,-6.999562713
10.3950,-6.986386454
10.4000,-6.974684325
10.4050,-6.964187253
10.4100,-6.954661939
10.4150,-6.945931124
10.4200,-6.938051345
10.4250,-6.930773347
10.4300,-6.924247378
10.4350,-6.918240882
10.4400,-6.912766988
10.4450,-6.907992504
10.4500,-6.903670036
10.4550,-6.899737764
10.4600,-6.895992553
10.4650,-6.892457066
10.4700,-6.889174688
10.4750,-6.886082863
10.4800,-6.88309795
10.4850,-6.880247226
10.4900,-6.877521227
10.4950,-6.874655909
10.5000,-6.871564783
10.5050,-6.868071221
10.5100,-6.864250439
10.5150,-6.859833571
10.5200,-6.854921739
10.5250,-6.849427085
10.5300,-6.843068951
10.5350,-6.835660972
10.5400,-6.827181005
10.5450,-6.817046752
10.5500,-6.805205969
10.5550,-6.791576416
10.5600,-6.776204031
10.5650,-6.759045628
10.5700,-6.739988115
10.5750,-6.719101771
10.5800,-6.696406728
10.5850,-6.672159733
10.5900,-6.646035478
10.5950,-6.618250721
10.6000,-6.588833318
10.6050,-6.557859861
10.6100,-6.525484549
10.6150,-6.491880947
10.6200,-6.457113362
10.6250,-6.421083939
10.6300,-6.38409307
10.6350,-6.346344813
10.6400,-6.308190078
10.6450,-6.269780033
10.6500,-6.231495835
10.6550,-6.193400811
10.6600,-6.155717934
10.6650,-6.118396655
10.6700,-6.081560351
10.6750,-6.044921285
10.6800,-6.008751804
10.6850,-5.97290746
10.6900,-5.937417503
10.6950,-5.902254368
10.7000,-5.867369887
10.7050,-5.832922996
10.7100,-5.799136945
10.7150,-5.766040197
10.7200,-5.733696941
10.7250,-5.702236987
10.7300,-5.671519658
10.7350,-5.641643147
10.7400,-5.612489917
10.7450,-5.583777084
10.7500,-5.555558422
10.7550,-5.527685698
10.7600,-5.500324072
10.7650,-5.473167101
10.7700,-5.446073687
10.7750,-5.419117658
10.7800,-5.392219571
10.7850,-5.365296153
10.7900,-5.338277953
10.7950,-5.311094063
10.8000,-5.283937064
10.8050,-5.256501236
10.8100,-5.228556673
10.8150,-5.200117615
10.8200,-5.171124536
10.8250,-5.141455306
10.8300,-5.11119531
10.8350,-5.080535938
10.8400,-5.049404417
10.8450,-5.018194384
10.8500,-4.986916873
10.8550,-4.955681826
10.8600,-4.924476865
10.8650,-4.893368229
10.8700,-4.862586086
10.8750,-4.832113441
10.8800,-4.801931562
10.8850,-4.772025783
10.8900,-4.742871975
10.8950,-4.714342822
10.9000,-4.68653742
10.9050,-4.659657299
10.9100,-4.633965457
10.9150,-4.609280332
10.9200,-4.585744864
10.9250,-4.563598218
10.9300,-4.542876144
10.9350,-4.523462039
10.9400,-4.505422429
10.9450,-4.488702737
10.9500,-4.473228845
10.9550,-4.458939732
10.9600,-4.445974085
10.9650,-4.434338781
10.9700,-4.424089558
10.9750,-4.41542901
10.9800,-4.40821808
10.9850,-4.402546636
10.9900,-4.398286645
10.9950,-4.395270662
11.0000,-4.393560869
11.0050,-4.393074521
11.0100,-4.393556343
11.0150,-4.395063824
11.0200,-4.397411409
11.0250,-4.400568644
11.0300,-4.404476768
11.0350,-4.409033612
11.0400,-4.414142737
11.0450,-4.419983424
11.0500,-4.426557948
11.0550,-4.433790302
11.0600,-4.441597801
11.0650,-4.450143267
11.0700,-4.459466093
11.0750,-4.469431951
11.0800,-4.479949857
11.0850,-4.491074454
11.0900,-4.502748175
11.0950,-4.515039652
11.1000,-4.527684316
11.1050,-4.540899363
11.1100,-4.554746574
11.1150,-4.569079496
11.1200,-4.584055936
11.1250,-4.599605773
11.1300,-4.615837182
11.1350,-4.632591247
11.1400,-4.649864467
11.1450,-4.66752675
11.1500,-4.685727051
11.1550,-4.704319574
11.1600,-4.723357763
11.1650,-4.742867565
11.1700,-4.762735343
11.1750,-4.783018984
11.1800,-4.803882648
11.1850,-4.825426642
11.1900,-4.847527877
11.1950,-4.870204531
11.2000,-4.893666113
11.2050,-4.917729558
11.2100,-4.942318877
11.2150,-4.967574674
11.2200,-4.993459506
11.2250,-5.019763396
11.2300,-5.046444565
11.2350,-5.073380347
11.2400,-5.100571232
11.2450,-5.127918098
11.2500,-5.155319376
11.2550,-5.182781612
11.2600,-5.210116399
11.2650,-5.237391872
11.2700,-5.264608274
11.2750,-5.291743539
11.2800,-5.318812784
11.2850,-5.345745498
11.2900,-5.372541108
11.2950,-5.399202705
11.3000,-5.425793572
11.3050,-5.452559681
11.3100,-5.479190795
11.3150,-5.505766747
11.3200,-5.532163235
11.3250,-5.55830744
11.3300,-5.5842475
11.3350,-5.610068736
11.3400,-5.636340918
11.3450,-5.663205485
11.3500,-5.690655065
11.3550,-5.719044914
11.3600,-5.748513874
11.3650,-5.778940276
11.3700,-5.810363492
11.3750,-5.842975142
11.3800,-5.877025687
11.3850,-5.912506893
11.3900,-5.949409142
11.3950,-5.98799065
11.4000,-6.028038662
11.4050,-6.069586601
11.4100,-6.112429992
11.4150,-6.156757239
11.4200,-6.202319592
11.4250,-6.249192978
11.4300,-6.297141001
11.4350,-6.346248596
11.4400,-6.396541846
11.4450,-6.448086489
11.4500,-6.500753412
11.4550,-6.554745176
11.4600,-6.610096568
11.4650,-6.666682837
11.4700,-6.724582822
11.4750,-6.783709727
11.4800,-6.84383871
11.4850,-6.904821545
11.4900,-6.966658446
11.4950,-7.029304749
11.5000,-7.092611162
11.5050,-7.156444119
11.5100,-7.220625709
11.5150,-7.284984014
11.5200,-7.349491421
11.5250,-7.414256026
11.5300,-7.479178208
11.5350,-7.544431826
11.5400,-7.60991091
11.5450,-7.675840165
11.5500,-7.742232376
11.5550,-7.808789315
11.5600,-7.875581076
11.5650,-7.942209447
11.5700,-8.008603207
11.5750,-8.074535788
11.5800,-8.140045795
11.5850,-8.204995892
11.5900,-8.269469755
11.5950,-8.333388482
11.6000,-8.39673545
11.6050,-8.459378089
11.6100,-8.521610957
11.6150,-8.583621904
11.6200,-8.645452237
11.6250,-8.707220515
11.6300,-8.76898707
11.6350,-8.830485936
11.6400,-8.891375541
11.6450,-8.951335594
11.6500,-9.010408153
11.6550,-9.068424372
11.6600,-9.125401762
11.6650,-9.181451504
11.6700,-9.236746711
11.6750,-9.291275619
11.6800,-9.345015832
11.6850,-9.398242005
11.6900,-9.451084006
11.6950,-9.50359374
11.7000,-9.556091472
11.7050,-9.608827304
11.7100,-9.661823397
11.7150,-9.715043514
11.7200,-9.768510398
11.7250,-9.822077881
11.7300,-9.875590996
11.7350,-9.928923089
11.7400,-9.981900558
11.7450,-10.03445415
11.7500,-10.08653519
11.7550,-10.13777315
11.7600,-10.18801273
11.7650,-10.23734198
11.7700,-10.28567129
11.7750,-10.33314989
11.7800,-10.37992969
11.7850,-10.42618357
11.7900,-10.4719668
11.7950,-10.51743698
11.8000,-10.5626293
11.8050,-10.60777588
11.8100,-10.65302466
11.8150,-10.69859161
11.8200,-10.74452338
11.8250,-10.79098147
11.8300,-10.83806201
11.8350,-10.88575517
11.8400,-10.93395161
11.8450,-10.98255673
11.8500,-11.03150552
11.8550,-11.08105087
11.8600,-11.13097156
11.8650,-11.18155985
11.8700,-11.23250945
11.8750,-11.28368378
11.8800,-11.33487985
11.8850,-11.38603504
11.8900,-11.43674551
11.8950,-11.48685857
11.9000,-11.53637534
11.9050,-11.58519882
11.9100,-11.63339769
11.9150,-11.68077376
11.9200,-11.72752135
11.9250,-11.77386154
11.9300,-11.81981013
11.9350,-11.8657046
11.9400,-11.91148325
11.9450,-11.95720964
11.9500,-12.00291787
11.9550,-12.04872632
11.9600,-12.09449701
11.9650,-12.14021874
11.9700,-12.18559504
11.9750,-12.23072827
11.9800,-12.27534849
11.9850,-12.31941383
11.9900,-12.36270326
11.9950,-12.40516858
12.0000,-12.44650557
12.0050,-12.48630136
12.0100,-12.52473315
12.0150,-12.56159669
12.0200,-12.59693287
12.0250,-12.6309985
12.0300,-12.66403121
12.0350,-12.69632936
12.0400,-12.72798479
12.0450,-12.75932626
12.0500,-12.79054335
12.0550,-12.82182072
12.0600,-12.85341497
12.0650,-12.88525174
12.0700,-12.91728632
12.0750,-12.94946493
12.0800,-12.9814623
12.0850,-13.01322289
12.0900,-13.04460994
12.0950,-13.07541417
12.1000,-13.10567225
12.1050,-13.13547149
12.1100,-13.16494307
12.1150,-13.19410903
12.1200,-13.22319137
12.1250,-13.25230261
12.1300,-13.28152099
12.1350,-13.31095203
12.1400,-13.34074827
12.1450,-13.37103997
12.1500,-13.40185762
12.1550,-13.4331576
12.1600,-13.46515263
12.1650,-13.49764654
12.1700,-13.53084236
12.1750,-13.56469339
12.1800,-13.59928647
12.1850,-13.63439586
12.1900,-13.6700156
12.1950,-13.70608583
12.2000,-13.74233875
12.2050,-13.77843858
12.2100,-13.81395002
12.2150,-13.8482991
12.2200,-13.88092493
12.2250,-13.91131542
12.2300,-13.93924739
12.2350,-13.96440581
12.2400,-13.98676964
12.2450,-14.00652809
12.2500,-14.02365545
12.2550,-14.03820222
12.2600,-14.05043709
12.2650,-14.06072156
12.2700,-14.06964342
12.2750,-14.07714256
12.2800,-14.08379059
12.2850,-14.08959297
12.2900,-14.09470571
12.2950,-14.09923376
12.3000,-14.10339655
12.3050,-14.10741762
12.3100,-14.11136421
12.3150,-14.11558178
12.3200,-14.12030695
12.3250,-14.12548476
12.3300,-14.13114407
12.3350,-14.1370784
12.3400,-14.14329646
12.3450,-14.1494279
12.3500,-14.15559359
12.3550,-14.16195171
12.3600,-14.16849977
12.3650,-14.17537589
12.3700,-14.18250407
12.3750,-14.18955614
12.3800,-14.19666355
12.3850,-14.2036703
12.3900,-14.21055226
12.3950,-14.21724442
12.4000,-14.22366004
12.4050,-14.22978674
12.4100,-14.2355327
12.4150,-14.24098548
12.4200,-14.2459858
12.4250,-14.25058542
12.4300,-14.25488606
12.4350,-14.25903451
12.4400,-14.26319119
12.4450,-14.26745653
12.4500,-14.27179339
12.4550,-14.27622264
12.4600,-14.28055085
12.4650,-14.2848355
12.4700,-14.28887856
12.4750,-14.2928114
12.4800,-14.29638394
12.4850,-14.29959488
12.4900,-14.30241889
12.4950,-14.30474216
12.5000,-14.30650467
12.5050,-14.30784661
12.5100,-14.30862231
12.5150,-14.30927469
12.5200,-14.30947469
12.5250,-14.309299
12.5300,-14.3087627
12.5350,-14.30786919
12.5400,-14.30658363
12.5450,-14.30473155
12.5500,-14.30236826
12.5550,-14.29932992
12.5600,-14.29525652
12.5650,-14.29004299
12.5700,-14.28338297
12.5750,-14.27543603
12.5800,-14.26611189
12.5850,-14.25560356
12.5900,-14.24407477
12.5950,-14.23142298
12.6000,-14.21783031
12.6050,-14.20327276
12.6100,-14.18763711
12.6150,-14.1706486
12.6200,-14.15213025
12.6250,-14.13211678
12.6300,-14.11050404
12.6350,-14.08749013
12.6400,-14.06336688
12.6450,-14.03845795
12.6500,-14.01248048
12.6550,-13.9853459
12.6600,-13.95691738
12.6650,-13.92711374
12.6700,-13.89628956
12.6750,-13.86474161
12.6800,-13.83297477
12.6850,-13.80088692
12.6900,-13.76880743
12.6950,-13.73700997
12.7000,-13.70551455
12.7050,-13.67444739
12.7100,-13.64400004
12.7150,-13.61419091
12.7200,-13.5851862
12.7250,-13.55683753
12.7300,-13.52920067
12.7350,-13.50190178
12.7400,-13.47476699
12.7450,-13.44770071
12.7500,-13.42079418
12.7550,-13.39390827
12.7600,-13.36710373
12.7650,-13.34049706
12.7700,-13.31423522
12.7750,-13.28839396
12.7800,-13.26315044
12.7850,-13.23857496
12.7900,-13.21473011
12.7950,-13.1917181
12.8000,-13.16931462
12.8050,-13.14742173
12.8100,-13.12610127
12.8150,-13.10523988
12.8200,-13.0853034
12.8250,-13.06617086
12.8300,-13.04769744
12.8350,-13.02983129
12.8400,-13.01245723
12.8450,-12.99558911
12.8500,-12.97929917
12.8550,-12.96383399
12.8600,-12.94936984
12.8650,-12.93601795
12.8700,-12.92368302
12.8750,-12.91239481
12.8800,-12.90211842
12.8850,-12.89262804
12.8900,-12.88388134
12.8950,-12.87589748
12.9000,-12.86865113
12.9050,-12.86228666
12.9100,-12.8568354
12.9150,-12.85251614
12.9200,-12.84923213
12.9250,-12.84693049
12.9300,-12.84571677
12.9350,-12.84525034
12.9400,-12.84542418
12.9450,-12.84615484
12.9500,-12.84736097
12.9550,-12.84909882
12.9600,-12.85121373
12.9650,-12.85362351
12.9700,-12.85599637
12.9750,-12.8581869
12.9800,-12.85987706
12.9850,-12.86127413
12.9900,-12.86208149
12.9950,-12.86248562
13.0000,-12.8626048
13.0050,-12.86243504
13.0100,-12.86187428
13.0150,-12.86096533
13.0200,-12.85955883
13.0250,-12.85787963
13.0300,-12.85557842
13.0350,-12.85296931
13.0400,-12.85019028
13.0450,-12.84724623
13.0500,-12.84406765
13.0550,-12.8406511
13.0600,-12.83678227
13.0650,-12.83248194
13.0700,-12.82758534
13.0750,-12.82188701
13.0800,-12.81513242
13.0850,-12.8075035
13.0900,-12.79889022
13.0950,-12.78948503
13.1000,-12.77937447
13.1050,-12.76870376
13.1100,-12.75764542
13.1150,-12.74614779
13.1200,-12.7340464
13.1250,-12.7215036
13.1300,-12.70865674
13.1350,-12.69552153
13.1400,-12.68234866
13.1450,-12.66918953
13.1500,-12.65617225
13.1550,-12.6430406
13.1600,-12.62997368
13.1650,-12.61693187
13.1700,-12.60397768
13.1750,-12.59120095
13.1800,-12.57845387
13.1850,-12.5657732
13.1900,-12.55300889
13.1950,-12.54012882
13.2000,-12.52697607
13.2050,-12.51340288
13.2100,-12.49916753
13.2150,-12.48404521
13.2200,-12.46809619
13.2250,-12.45117266
13.2300,-12.43316168
13.2350,-12.4142853
13.2400,-12.39437692
13.2450,-12.37336932
13.2500,-12.35114282
13.2550,-12.32777418
13.2600,-12.30306785
13.2650,-12.27715262
13.2700,-12.24992258
13.2750,-12.22132784
13.2800,-12.19128429
13.2850,-12.15957468
13.2900,-12.12625306
13.2950,-12.09119168
13.3000,-12.05440129
13.3050,-12.01569721
13.3100,-11.9748804
13.3150,-11.93207843
13.3200,-11.88753062
13.3250,-11.84089072
13.3300,-11.79254587
13.3350,-11.74243422
13.3400,-11.69058164
13.3450,-11.6369254
13.3500,-11.58159797
13.3550,-11.52471163
13.3600,-11.4664019
13.3650,-11.40659007
13.3700,-11.34531877
13.3750,-11.28273016
13.3800,-11.21910519
13.3850,-11.15438006
13.3900,-11.08876401
13.3950,-11.02222415
13.4000,-10.95488701
13.4050,-10.88679101
13.4100,-10.81781097
13.4150,-10.74807557
13.4200,-10.67791377
13.4250,-10.60743495
13.4300,-10.5368164
13.4350,-10.46613094
13.4400,-10.39555933
13.4450,-10.32545354
13.4500,-10.25562284
13.4550,-10.18658885
13.4600,-10.11833556
13.4650,-10.05108307
13.4700,-9.985230145
13.4750,-9.920683866
13.4800,-9.857720951
13.4850,-9.796600921
13.4900,-9.737493799
13.4950,-9.680374399
13.5000,-9.625425926
13.5050,-9.572575011
13.5100,-9.522030008
13.5150,-9.473844151
13.5200,-9.427991923
13.5250,-9.384631263
13.5300,-9.343643265
13.5350,-9.304991379
13.5400,-9.268521742
13.5450,-9.233966835
13.5500,-9.201359194
13.5550,-9.170409357
13.5600,-9.141220621
13.5650,-9.113744346
13.5700,-9.088026545
13.5750,-9.064097066
13.5800,-9.042156682
13.5850,-9.022322307
13.5900,-9.004672202
13.5950,-8.989014562
13.6000,-8.975382301
13.6050,-8.963791788
13.6100,-8.954369205
13.6150,-8.946801927
13.6200,-8.940882605
13.6250,-8.936655097
13.6300,-8.934089385
13.6350,-8.93303083
13.6400,-8.933323566
13.6450,-8.934893809
13.6500,-8.937463261
13.6550,-8.94092487
13.6600,-8.945418681
13.6650,-8.950847385
13.6700,-8.957153775
13.6750,-8.964421772
13.6800,-8.972726887
13.6850,-8.98223042
13.6900,-8.992891343
13.6950,-9.004828715
13.7000,-9.018071496
13.7050,-9.032587707
13.7100,-9.048548879
13.7150,-9.066131442
13.7200,-9.085140278
13.7250,-9.105580465
13.7300,-9.127282024
13.7350,-9.150374669
13.7400,-9.17468218
13.7450,-9.19992645
13.7500,-9.22623317
13.7550,-9.253404839
13.7600,-9.281506291
13.7650,-9.310431733
13.7700,-9.340031713
13.7750,-9.370357211
13.7800,-9.401482668
13.7850,-9.433481562
13.7900,-9.466528445
13.7950,-9.500723333
13.8000,-9.536017646
13.8050,-9.572766201
13.8100,-9.611023348
13.8150,-9.650934701
13.8200,-9.692377498
13.8250,-9.735480753
13.8300,-9.780084712
13.8350,-9.826128573
13.8400,-9.873592999
13.8450,-9.922483357
13.8500,-9.97271124
13.8550,-10.02408273
13.8600,-10.07664534
13.8650,-10.1302097
13.8700,-10.18460065
13.8750,-10.239795
13.8800,-10.29544529
13.8850,-10.35139963
13.8900,-10.40764956
13.8950,-10.46421585
13.9000,-10.52088801
13.9050,-10.5777459
13.9100,-10.63473453
13.9150,-10.69201714
13.9200,-10.7497003
13.9250,-10.80772873
13.9300,-10.86615724
13.9350,-10.9249304
13.9400,-10.98413304
13.9450,-11.04374614
13.9500,-11.10391836
13.9550,-11.164589
13.9600,-11.22564733
13.9650,-11.28709194
13.9700,-11.34893272
13.9750,-11.41103869
13.9800,-11.47320616
13.9850,-11.53527653
13.9900,-11.5973525
13.9950,-11.65946484
14.0000,-11.72168226
14.0050,-11.78408592
14.0100,-11.84669698
14.0150,-11.90942679
14.0200,-11.97244778
14.0250,-12.03581064
14.0300,-12.09950048
14.0350,-12.1635329
14.0400,-12.22769886
14.0450,-12.29203115
14.0500,-12.35641149
14.0550,-12.42088277
14.0600,-12.48543651
14.0650,-12.54999403
14.0700,-12.61466216
14.0750,-12.67951198
14.0800,-12.74439956
14.0850,-12.80937691
14.0900,-12.87440038
14.0950,-12.93952549
14.1000,-13.0047866
14.1050,-13.07012921
14.1100,-13.13551339
14.1150,-13.20091776
14.1200,-13.26654809
14.1250,-13.33235917
14.1300,-13.39853212
14.1350,-13.4648982
14.1400,-13.53163068
14.1450,-13.59845513
14.1500,-13.66551955
14.1550,-13.73276806
14.1600,-13.80003504
14.1650,-13.86717434
14.1700,-13.93413335
14.1750,-14.00063568
14.1800,-14.06673842
14.1850,-14.13235173
14.1900,-14.19716588
14.1950,-14.26101209
14.2000,-14.32407407
14.2050,-14.38613164
14.2100,-14.44743497
14.2150,-14.50774262
14.2200,-14.56708321
14.2250,-14.62553875
14.2300,-14.68298591
14.2350,-14.73956101
14.2400,-14.79520396
14.2450,-14.84987515
14.2500,-14.90358819
14.2550,-14.95619455
14.2600,-15.00740857
14.2650,-15.05728096
14.2700,-15.10558857
14.2750,-15.15234613
14.2800,-15.19759568
14.2850,-15.2411828
14.2900,-15.28294537
14.2950,-15.32276471
14.3000,-15.36057656
14.3050,-15.3963999
14.3100,-15.42998385
14.3150,-15.4613002
14.3200,-15.49047931
14.3250,-15.51733574
14.3300,-15.54216769
14.3350,-15.56506712
14.3400,-15.58631293
14.3450,-15.6059716
14.3500,-15.6243207
14.3550,-15.64131411
14.3600,-15.65714348
14.3650,-15.67194031
14.3700,-15.68582303
14.3750,-15.69899225
14.3800,-15.71159886
14.3850,-15.72355458
14.3900,-15.73495447
14.3950,-15.74596355
14.4000,-15.75650692
14.4050,-15.76651223
14.4100,-15.77576978
14.4150,-15.784185
14.4200,-15.79169575
14.4250,-15.79806338
14.4300,-15.80322985
14.4350,-15.80720362
14.4400,-15.80983445
14.4450,-15.81118495
14.4500,-15.81104009
14.4550,-15.80958447
14.4600,-15.80678716
14.4650,-15.80250493
14.4700,-15.797019
14.4750,-15.79040462
14.4800,-15.78241951
14.4850,-15.77323965
14.4900,-15.76286864
14.4950,-15.75150061
14.5000,-15.73903369
14.5050,-15.72553664
14.5100,-15.71109815
14.5150,-15.69592579
14.5200,-15.68001101
14.5250,-15.66346063
14.5300,-15.64615841
14.5350,-15.62805299
14.5400,-15.60899986
14.5450,-15.58893237
14.5500,-15.5678459
14.5550,-15.5460305
14.5600,-15.52381202
14.5650,-15.50120898
14.5700,-15.47835625
14.5750,-15.45544317
14.5800,-15.43222409
14.5850,-15.40895325
14.5900,-15.38571142
14.5950,-15.36249277
14.6000,-15.33927238
14.6050,-15.31596046
14.6100,-15.29286659
14.6150,-15.2701849
14.6200,-15.24779587
14.6250,-15.22598403
14.6300,-15.20456152
14.6350,-15.18345794
14.6400,-15.16267422
14.6450,-15.14204391
14.6500,-15.12130738
14.6550,-15.10042257
14.6600,-15.07907912
14.6650,-15.05744245
14.6700,-15.03541853
14.6750,-15.01299936
14.6800,-14.99017877
14.6850,-14.96706815
14.6900,-14.94360225
14.6950,-14.91949276
14.7000,-14.89486134
14.7050,-14.86972497
14.7100,-14.84418305
14.7150,-14.81830097
14.7200,-14.79189462
14.7250,-14.76505404
14.7300,-14.73780853
14.7350,-14.71006475
14.7400,-14.68185107
14.7450,-14.65306554
14.7500,-14.62373608
14.7550,-14.59398537
14.7600,-14.56390882
14.7650,-14.53369433
14.7700,-14.50314938
14.7750,-14.47211615
14.7800,-14.44052029
14.7850,-14.40817371
14.7900,-14.37526204
14.7950,-14.34163955
14.8000,-14.30736091
14.8050,-14.27263364
14.8100,-14.23758578
14.8150,-14.20224699
14.8200,-14.16635278
14.8250,-14.1296825
14.8300,-14.09220637
14.8350,-14.05394511
14.8400,-14.01491337
14.8450,-13.97526298
14.8500,-13.93488367
14.8550,-13.89361656
14.8600,-13.85141574
14.8650,-13.80847674
14.8700,-13.76525997
14.8750,-13.72191984
14.8800,-13.67898795
14.8850,-13.63671967
14.8900,-13.59530176
14.8950,-13.55501992
14.9000,-13.51620981
14.9050,-13.4789597
14.9100,-13.44320329
14.9150,-13.40869636
14.9200,-13.37514794
14.9250,-13.34225489
14.9300,-13.3101403
14.9350,-13.27856365
14.9400,-13.24729218
14.9450,-13.21646219
14.9500,-13.18587966
14.9550,-13.15545313
14.9600,-13.12510637
14.9650,-13.09425138
14.9700,-13.06266197
14.9750,-13.02992809
14.9800,-12.99571114
14.9850,-12.95964652
14.9900,-12.92155588
14.9950,-12.88136552
15.0000,-12.83856697
15.0050,-12.79305073
15.0100,-12.74487636
15.0150,-12.69400273
15.0200,-12.64055528
15.0250,-12.58451615
15.0300,-12.52589739
15.0350,-12.46475754
15.0400,-12.40116284
15.0450,-12.33535777
15.0500,-12.26724568
15.0550,-12.19683387
15.0600,-12.12439469
15.0650,-12.05023031
15.0700,-11.97456299
15.0750,-11.89780976
15.0800,-11.82045931
15.0850,-11.74300916
15.0900,-11.66553135
15.0950,-11.58848235
15.1000,-11.51188531
15.1050,-11.43562562
15.1100,-11.35979138
15.1150,-11.28455691
15.1200,-11.21016049
15.1250,-11.13691125
15.1300,-11.06489745
15.1350,-10.99432273
15.1400,-10.92518574
15.1450,-10.85759897
15.1500,-10.79171085
15.1550,-10.72774256
15.1600,-10.66581432
15.1650,-10.60588456
15.1700,-10.54784369
15.1750,-10.49155404
15.1800,-10.4370148
15.1850,-10.38437715
15.1900,-10.33370175
15.1950,-10.28497613
15.2000,-10.23829645
15.2050,-10.19373477
15.2100,-10.15155827
15.2150,-10.11162221
15.2200,-10.07423685
15.2250,-10.03909731
15.2300,-10.00587209
15.2350,-9.974433105
15.2400,-9.944547642
15.2450,-9.915724563
15.2500,-9.887886781
15.2550,-9.86065895
15.2600,-9.833690781
15.2650,-9.806754426
15.2700,-9.77945833
15.2750,-9.751685706
15.2800,-9.723249366
15.2850,-9.694195878
15.2900,-9.664307369
15.2950,-9.633466374
15.3000,-9.602114111
15.3050,-9.570147342
15.3100,-9.537726415
15.3150,-9.504845626
15.3200,-9.471520732
15.3250,-9.437730696
15.3300,-9.403288187
15.3350,-9.368285007
15.3400,-9.332753375
15.3450,-9.296801245
15.3500,-9.260474553
15.3550,-9.223786024
15.3600,-9.186570944
15.3650,-9.148609518
15.3700,-9.110011618
15.3750,-9.070801308
15.3800,-9.031254103
15.3850,-8.991042322
15.3900,-8.950602296
15.3950,-8.909900263
15.4000,-8.869097576
15.4050,-8.828349956
15.4100,-8.787229279
15.4150,-8.745598723
15.4200,-8.703529218
15.4250,-8.660891186
15.4300,-8.617700247
15.4350,-8.573613247
15.4400,-8.528819273
15.4450,-8.483296739
15.4500,-8.437102226
15.4550,-8.390211613
15.4600,-8.342857799
15.4650,-8.294789214
15.4700,-8.246023869
15.4750,-8.196585535
15.4800,-8.146444643
15.4850,-8.095508197
15.4900,-8.043939382
15.4950,-7.991935718
15.5000,-7.939625195
15.5050,-7.887117336
15.5100,-7.834698987
15.5150,-7.782525095
15.5200,-7.730700932
15.5250,-7.679681211
15.5300,-7.629886334
15.5350,-7.581358971
15.5400,-7.534222176
15.5450,-7.488725716
15.5500,-7.444913305
15.5550,-7.402760558
15.5600,-7.362446271
15.5650,-7.323937801
15.5700,-7.287293388
15.5750,-7.252460402
15.5800,-7.219527042
15.5850,-7.188294961
15.5900,-7.158883416
15.5950,-7.131316979
15.6000,-7.10531133
15.6050,-7.08077659
15.6100,-7.05743654
15.6150,-7.035090356
15.6200,-7.013579059
15.6250,-6.99288885
15.6300,-6.973026631
15.6350,-6.954032401
15.6400,-6.935770182
15.6450,-6.918253576
15.6500,-6.901537614
15.6550,-6.885346439
15.6600,-6.869484158
15.6650,-6.854229712
15.6700,-6.839289647
15.6750,-6.824546705
15.6800,-6.809871721
15.6850,-6.795381814
15.6900,-6.78072961
15.6950,-6.765862855
15.7000,-6.750775928
15.7050,-6.735457143
15.7100,-6.720010892
15.7150,-6.704303379
15.7200,-6.688168637
15.7250,-6.671552861
15.7300,-6.654422572
15.7350,-6.636900665
15.7400,-6.618813146
15.7450,-6.599954369
15.7500,-6.580111014
15.7550,-6.559210561
15.7600,-6.536912504
15.7650,-6.513436849
15.7700,-6.488852933
15.7750,-6.463271013
15.7800,-6.436735257
15.7850,-6.409381259
15.7900,-6.381183351
15.7950,-6.352046594
15.8000,-6.321946057
15.8050,-6.290938496
15.8100,-6.258741015
15.8150,-6.225433488
15.8200,-6.191207731
15.8250,-6.156169998
15.8300,-6.119889548
15.8350,-6.082672853
15.8400,-6.044566893
15.8450,-6.005480799
15.8500,-5.965489412
15.8550,-5.924742398
15.8600,-5.883243392
15.8650,-5.841139707
15.8700,-5.798383155
15.8750,-5.755138872
15.8800,-5.711169312
15.8850,-5.666418301
15.8900,-5.620710791
15.8950,-5.574165674
15.9000,-5.526950291
15.9050,-5.479050818
15.9100,-5.430423614
15.9150,-5.38133341
15.9200,-5.332091359
15.9250,-5.282579062
15.9300,-5.233170141
15.9350,-5.183772649
15.9400,-5.134494253
15.9450,-5.085075472
15.9500,-5.035918372
15.9550,-4.987197092
15.9600,-4.939218637
15.9650,-4.891951364
15.9700,-4.845734376
15.9750,-4.800981172
15.9800,-4.75779905
15.9850,-4.716404057
15.9900,-4.677036739
15.9950,-4.639899394
16.0000,-4.605157235
16.0050,-4.572898036
16.0100,-4.54336236
16.0150,-4.516444875
16.0200,-4.492350153
16.0250,-4.471541628
16.0300,-4.454227722
16.0350,-4.440588702
16.0400,-4.430823475
16.0450,-4.425169675
16.0500,-4.423846422
16.0550,-4.427126616
16.0600,-4.435364567
16.0650,-4.448558081
16.0700,-4.466792267
16.0750,-4.489871367
16.0800,-4.517679998
16.0850,-4.55001842
16.0900,-4.586491361
16.0950,-4.626885897
16.1000,-4.670864449
16.1050,-4.718471975
16.1100,-4.769490173
16.1150,-4.823660927
16.1200,-4.880454486
16.1250,-4.939420426
16.1300,-5.000533641
16.1350,-5.063286211
16.1400,-5.127213599
16.1450,-5.191710196
16.1500,-5.256364119
16.1550,-5.320537446
16.1600,-5.383988664
16.1650,-5.44635914
16.1700,-5.50747727
16.1750,-5.567024113
16.1800,-5.625038137
16.1850,-5.681738154
16.1900,-5.736903693
16.1950,-5.790590712
16.2000,-5.842678074
16.2050,-5.893154437
16.2100,-5.942098284
16.2150,-5.989377252
16.2200,-6.034694735
16.2250,-6.078189775
16.2300,-6.11960958
16.2350,-6.159036576
16.2400,-6.196316911
16.2450,-6.23180105
16.2500,-6.265353867
16.2550,-6.296983187
16.2600,-6.326832021
16.2650,-6.355073402
16.2700,-6.381832113
16.2750,-6.407031567
16.2800,-6.430744144
16.2850,-6.45290518
16.2900,-6.473606797
16.2950,-6.49256443
16.3000,-6.509693334
16.3050,-6.524964809
16.3100,-6.538434647
16.3150,-6.55058277
16.3200,-6.561453297
16.3250,-6.571130329
16.3300,-6.579774038
16.3350,-6.587351233
16.3400,-6.593824131
16.3450,-6.599187888
16.3500,-6.603661742
16.3550,-6.607092293
16.3600,-6.609215424
16.3650,-6.609989545
16.3700,-6.609350377
16.3750,-6.607267994
16.3800,-6.60367789
16.3850,-6.598596185
16.3900,-6.592019091
16.3950,-6.584122267
16.4000,-6.574826585
16.4050,-6.563852398
16.4100,-6.551286322
16.4150,-6.537290657
16.4200,-6.522065225
16.4250,-6.505437279
16.4300,-6.487086869
16.4350,-6.466931996
16.4400,-6.44519973
16.4450,-6.422013697
16.4500,-6.397533062
16.4550,-6.372051181
16.4600,-6.345553326
16.4650,-6.318455009
16.4700,-6.290941349
16.4750,-6.263335505
16.4800,-6.235434018
16.4850,-6.207153609
16.4900,-6.17866808
16.4950,-6.149791404
16.5000,-6.120701606
16.5050,-6.091241109
16.5100,-6.061397682
16.5150,-6.031367988
16.5200,-6.001246722
16.5250,-5.971214759
16.5300,-5.941442807
16.5350,-5.912254143
16.5400,-5.883742543
16.5450,-5.855928929
16.5500,-5.828858773
16.5550,-5.802636116
16.5600,-5.777342835
16.5650,-5.752824283
16.5700,-5.728865371
16.5750,-5.705612348
16.5800,-5.683014918
16.5850,-5.661085381
16.5900,-5.639813791
16.5950,-5.619583555
16.6000,-5.600580591
16.6050,-5.582979732
16.6100,-5.567016115
16.6150,-5.55258826
16.6200,-5.539762259
16.6250,-5.528341555
16.6300,-5.518206425
16.6350,-5.509175969
16.6400,-5.501410116
16.6450,-5.49485929
16.6500,-5.489270029
16.6550,-5.484754914
16.6600,-5.481205979
16.6650,-5.478869471
16.6700,-5.477494622
16.6750,-5.477349841
16.6800,-5.478688609
16.6850,-5.481475857
16.6900,-5.48602869
16.6950,-5.492161264
16.7000,-5.500119441
16.7050,-5.509731424
16.7100,-5.52092058
16.7150,-5.533583191
16.7200,-5.547406451
16.7250,-5.56229036
16.7300,-5.578463648
16.7350,-5.595905992
16.7400,-5.614251886
16.7450,-5.633672777
16.7500,-5.653942119
16.7550,-5.675065476
16.7600,-5.697144571
16.7650,-5.719897821
16.7700,-5.743380669
16.7750,-5.767099197
16.7800,-5.791425856
16.7850,-5.8160834
16.7900,-5.841365925
16.7950,-5.867163547
16.8000,-5.893589441
16.8050,-5.920740085
16.8100,-5.948736818
16.8150,-5.977561987
16.8200,-6.007177053
16.8250,-6.03748022
16.8300,-6.068426203
16.8350,-6.099808733
16.8400,-6.1318028
16.8450,-6.164269492
16.8500,-6.197420966
16.8550,-6.231270024
16.8600,-6.265695068
16.8650,-6.300611508
16.8700,-6.33608094
16.8750,-6.372081952
16.8800,-6.408421374
16.8850,-6.444904224
16.8900,-6.481418279
16.8950,-6.517937033
16.9000,-6.554360391
16.9050,-6.590664782
16.9100,-6.626592526
16.9150,-6.662231978
16.9200,-6.69758913
16.9250,-6.732606329
16.9300,-6.767460693
16.9350,-6.802200418
16.9400,-6.836839365
16.9450,-6.871620799
16.9500,-6.906716298
16.9550,-6.942091132
16.9600,-6.977953602
16.9650,-7.014279687
16.9700,-7.051216667
16.9750,-7.088602469
16.9800,-7.126226644
16.9850,-7.164081918
16.9900,-7.202104826
16.9950,-7.240288865
17.0000,-7.27849106
17.0050,-7.3168234
17.0100,-7.354967718
17.0150,-7.392946398
17.0200,-7.430828667
17.0250,-7.468788441
17.0300,-7.506803988
17.0350,-7.544803859
17.0400,-7.583000341
17.0450,-7.62134849
17.0500,-7.660084266
17.0550,-7.699247683
17.0600,-7.738651693
17.0650,-7.77853695
17.0700,-7.818447362
17.0750,-7.858635025
17.0800,-7.899021697
17.0850,-7.939777353
17.0900,-7.980625655
17.0950,-8.021793384
17.1000,-8.063122449
17.1050,-8.104712744
17.1100,-8.146612044
17.1150,-8.188723146
17.1200,-8.231120947
17.1250,-8.27398713
17.1300,-8.317332432
17.1350,-8.36123282
17.1400,-8.405489334
17.1450,-8.450338942
17.1500,-8.495558306
17.1550,-8.540987509
17.1600,-8.586658319
17.1650,-8.63256007
17.1700,-8.678656328
17.1750,-8.724921108
17.1800,-8.771235415
17.1850,-8.817940269
17.1900,-8.865058204
17.1950,-8.91248867
17.2000,-8.96027147
17.2050,-9.008637694
17.2100,-9.057640458
17.2150,-9.107261184
17.2200,-9.157369745
17.2250,-9.207785086
17.2300,-9.258329665
17.2350,-9.309163618
17.2400,-9.360036315
17.2450,-9.410792747
17.2500,-9.461293546
17.2550,-9.511643282
17.2600,-9.561825003
17.2650,-9.611993478
17.2700,-9.662069744
17.2750,-9.71231851
17.2800,-9.762922032
17.2850,-9.814038432
17.2900,-9.865677314
17.2950,-9.917919337
17.3000,-9.970774686
17.3050,-10.02427732
17.3100,-10.07837109
17.3150,-10.13296965
17.3200,-10.18806189
17.3250,-10.24357329
17.3300,-10.29930013
17.3350,-10.35529947
17.3400,-10.41164071
17.3450,-10.46814448
17.3500,-10.52465531
17.3550,-10.58124107
17.3600,-10.63792407
17.3650,-10.6945731
17.3700,-10.75155383
17.3750,-10.80882264
17.3800,-10.86645247
17.3850,-10.92428075
17.3900,-10.98242598
17.3950,-11.04081932
17.4000,-11.09943528
17.4050,-11.15844026
17.4100,-11.2178231
17.4150,-11.2776885
17.4200,-11.33802169
17.4250,-11.39873593
17.4300,-11.45985918
17.4350,-11.52111167
17.4400,-11.58268255
17.4450,-11.64437684
17.4500,-11.7060323
17.4550,-11.76766409
17.4600,-11.82909428
17.4650,-11.89022255
17.4700,-11.95104528
17.4750,-12.01166693
17.4800,-12.07227698
17.4850,-12.13299831
17.4900,-12.19409319
17.4950,-12.25566562
17.5000,-12.31793365
17.5050,-12.38098456
17.5100,-12.44485026
17.5150,-12.50963293
17.5200,-12.57555019
17.5250,-12.64279011
17.5300,-12.71137879
17.5350,-12.78112083
17.5400,-12.85216172
17.5450,-12.92431262
17.5500,-12.99756876
17.5550,-13.07171512
17.5600,-13.14667606
17.5650,-13.22238715
17.5700,-13.29877067
17.5750,-13.37571586
17.5800,-13.45297183
17.5850,-13.53031677
17.5900,-13.60770979
17.5950,-13.68504574
17.6000,-13.76237063
17.6050,-13.8394511
17.6100,-13.91642359
17.6150,-13.9931777
17.6200,-14.06963465
17.6250,-14.14588492
17.6300,-14.22188396
17.6350,-14.29769567
17.6400,-14.37332412
17.6450,-14.44886052
17.6500,-14.52425733
17.6550,-14.59934512
17.6600,-14.67369964
17.6650,-14.74717047
17.6700,-14.81933994
17.6750,-14.89010713
17.6800,-14.9591155
17.6850,-15.02638407
17.6900,-15.09174629
17.6950,-15.15529709
17.7000,-15.21699649
17.7050,-15.27700001
17.7100,-15.33533044
17.7150,-15.39223585
17.7200,-15.44790378
17.7250,-15.50240873
17.7300,-15.55582742
17.7350,-15.60838815
17.7400,-15.65999479
17.7450,-15.7106129
17.7500,-15.76023586
17.7550,-15.80856934
17.7600,-15.85575105
17.7650,-15.90165155
17.7700,-15.94651746
17.7750,-15.99014096
17.7800,-16.03284771
17.7850,-16.07464372
17.7900,-16.11548805
17.7950,-16.15562097
17.8000,-16.19495546
17.8050,-16.233602
17.8100,-16.27140776
17.8150,-16.30845701
17.8200,-16.34457963
17.8250,-16.37975687
17.8300,-16.41387521
17.8350,-16.44698801
17.8400,-16.47925111
17.8450,-16.51073843
17.8500,-16.54171061
17.8550,-16.57236422
17.8600,-16.60265602
17.8650,-16.63261809
17.8700,-16.66226354
17.8750,-16.6913845
17.8800,-16.7200925
17.8850,-16.74806453
17.8900,-16.77501606
17.8950,-16.80069257
17.9000,-16.82495597
17.9050,-16.8479171
17.9100,-16.86962386
17.9150,-16.88999745
17.9200,-16.90911455
17.9250,-16.92712181
17.9300,-16.94433055
17.9350,-16.96076664
17.9400,-16.97655348
17.9450,-16.99179318
17.9500,-17.00649359
17.9550,-17.0207271
17.9600,-17.03475651
17.9650,-17.04870323
17.9700,-17.06283238
17.9750,-17.07727427
17.9800,-17.09212058
17.9850,-17.10738447
17.9900,-17.12317243
17.9950,-17.13934561
18.0000,-17.15586706
18.0050,-17.17261689
18.0100,-17.18932644
18.0150,-17.20577412
18.0200,-17.22173647
18.0250,-17.23713769
18.0300,-17.25182178
18.0350,-17.26577012
18.0400,-17.27886565
18.0450,-17.29115694
18.0500,-17.30269018
18.0550,-17.31391771
18.0600,-17.32467292
18.0650,-17.33534541
18.0700,-17.34585883
18.0750,-17.35615594
18.0800,-17.36596424
18.0850,-17.3751514
18.0900,-17.38351343
18.0950,-17.39077028
18.1000,-17.39705023
18.1050,-17.4019113
18.1100,-17.40567002
18.1150,-17.40807585
18.1200,-17.40921471
18.1250,-17.40888329
18.1300,-17.40698352
18.1350,-17.40365989
18.1400,-17.39853844
18.1450,-17.39199113
18.1500,-17.38383309
18.1550,-17.37401547
18.1600,-17.36265625
18.1650,-17.34969854
18.1700,-17.33530536
18.1750,-17.31958217
18.1800,-17.30254607
18.1850,-17.28452762
18.1900,-17.2656103
18.1950,-17.24580924
18.2000,-17.22517714
18.2050,-17.20380917
18.2100,-17.18158275
18.2150,-17.15890673
18.2200,-17.13570785
18.2250,-17.11190762
18.2300,-17.08750849
18.2350,-17.06250243
18.2400,-17.03687286
18.2450,-17.01074311
18.2500,-16.98403951
18.2550,-16.95667555
18.2600,-16.92885199
18.2650,-16.90032208
18.2700,-16.87110103
18.2750,-16.84135218
18.2800,-16.81140008
18.2850,-16.78146766
18.2900,-16.75182917
18.2950,-16.72287789
18.3000,-16.69497328
18.3050,-16.66818437
18.3100,-16.64285649
18.3150,-16.6190675
18.3200,-16.59697703
18.3250,-16.5764954
18.3300,-16.55763796
18.3350,-16.54024167
18.3400,-16.52423735
18.3450,-16.50929674
18.3500,-16.49553922
18.3550,-16.48260911
18.3600,-16.47052896
18.3650,-16.45906044
18.3700,-16.44815793
18.3750,-16.43785166
18.3800,-16.42788958
18.3850,-16.41826203
18.3900,-16.40913226
18.3950,-16.40045433
18.4000,-16.39195066
18.4050,-16.38359593
18.4100,-16.3751018
18.4150,-16.36640982
18.4200,-16.35751937
18.4250,-16.34851385
18.4300,-16.33952384
18.4350,-16.3305257
18.4400,-16.32177732
18.4450,-16.31315546
18.4500,-16.30462769
18.4550,-16.29612577
18.4600,-16.28780933
18.4650,-16.27963862
18.4700,-16.27159012
18.4750,-16.26374971
18.4800,-16.25601072
18.4850,-16.24831116
18.4900,-16.24061624
18.4950,-16.2330567
18.5000,-16.22556339
18.5050,-16.21818408
18.5100,-16.21102699
18.5150,-16.20399331
18.5200,-16.19727999
18.5250,-16.19102904
18.5300,-16.18515836
18.5350,-16.17991869
18.5400,-16.17530253
18.5450,-16.17124309
18.5500,-16.16777258
18.5550,-16.1648994
18.5600,-16.16258595
18.5650,-16.16093437
18.5700,-16.16001239
18.5750,-16.15964244
18.5800,-16.15970362
18.5850,-16.16022392
18.5900,-16.16110164
18.5950,-16.16224057
18.6000,-16.16342366
18.6050,-16.16455006
18.6100,-16.16558865
18.6150,-16.1664932
18.6200,-16.1671897
18.6250,-16.16759773
18.6300,-16.16763328
18.6350,-16.16719143
18.6400,-16.16635362
18.6450,-16.16545438
18.6500,-16.16413
18.6550,-16.1625287
18.6600,-16.16079496
18.6650,-16.1589408
18.6700,-16.15697866
18.6750,-16.15489526
18.6800,-16.15302481
18.6850,-16.15130141
18.6900,-16.14947591
18.6950,-16.14764983
18.7000,-16.14575885
18.7050,-16.14401376
18.7100,-16.14227448
18.7150,-16.14072584
18.7200,-16.13918714
18.7250,-16.13777379
18.7300,-16.13642971
18.7350,-16.13513003
18.7400,-16.13389225
18.7450,-16.13291799
18.7500,-16.13236997
18.7550,-16.1325665
18.7600,-16.13355612
18.7650,-16.13534508
18.7700,-16.13817706
18.7750,-16.14204139
18.7800,-16.14728074
18.7850,-16.15375729
18.7900,-16.16163327
18.7950,-16.17104436
18.8000,-16.18202592
18.8050,-16.1942228
18.8100,-16.20758773
18.8150,-16.2220015
18.8200,-16.23731507
18.8250,-16.25334302
18.8300,-16.26994558
18.8350,-16.28667524
18.8400,-16.30325527
18.8450,-16.31944877
18.8500,-16.33510033
18.8550,-16.35001905
18.8600,-16.36398951
18.8650,-16.37676527
18.8700,-16.388012
18.8750,-16.39741607
18.8800,-16.40468871
18.8850,-16.40962266
18.8900,-16.41202101
18.8950,-16.41181936
18.9000,-16.40913956
18.9050,-16.40388186
18.9100,-16.39628261
18.9150,-16.38622221
18.9200,-16.37374901
18.9250,-16.35893272
18.9300,-16.34205719
18.9350,-16.32336246
18.9400,-16.30283263
18.9450,-16.28047259
18.9500,-16.25663913
18.9550,-16.23144279
18.9600,-16.20486237
18.9650,-16.17702612
18.9700,-16.14801618
18.9750,-16.11793846
18.9800,-16.08670243
18.9850,-16.05459269
18.9900,-16.02152276
18.9950,-15.98744753
19.0000,-15.95240924
19.0050,-15.91622319
19.0100,-15.87912485
19.0150,-15.84091409
19.0200,-15.80166599
19.0250,-15.76155037
19.0300,-15.72070744
19.0350,-15.6793314
19.0400,-15.63777144
19.0450,-15.59603773
19.0500,-15.55431414
19.0550,-15.51287848
19.0600,-15.47194239
19.0650,-15.43194361
19.0700,-15.3931413
19.0750,-15.3556418
19.0800,-15.31950653
19.0850,-15.2851248
19.0900,-15.25251322
19.0950,-15.22162604
19.1000,-15.19243447
19.1050,-15.16497746
19.1100,-15.13908627
19.1150,-15.11478755
19.1200,-15.09188091
19.1250,-15.07013259
19.1300,-15.04947614
19.1350,-15.02997038
19.1400,-15.01156056
19.1450,-14.99411905
19.1500,-14.97782323
19.1550,-14.96274677
19.1600,-14.94881742
19.1650,-14.93621861
19.1700,-14.92492926
19.1750,-14.91527797
19.1800,-14.90737083
19.1850,-14.90133988
19.1900,-14.89724392
19.1950,-14.89521755
19.2000,-14.89488864
19.2050,-14.89652476
19.2100,-14.89975684
19.2150,-14.90470915
19.2200,-14.91122436
19.2250,-14.9190506
19.2300,-14.92795462
19.2350,-14.9376411
19.2400,-14.9479643
19.2450,-14.95868357
19.2500,-14.96968101
19.2550,-14.98088311
19.2600,-14.99217018
19.2650,-15.00356454
19.2700,-15.014885
19.2750,-15.0262893
19.2800,-15.03796537
19.2850,-15.04971136
19.2900,-15.06190641
19.2950,-15.07465664
19.3000,-15.08818788
19.3050,-15.10269719
19.3100,-15.11835361
19.3150,-15.13533559
19.3200,-15.15377905
19.3250,-15.17364057
19.3300,-15.19480175
19.3350,-15.21734051
19.3400,-15.2410303
19.3450,-15.2658391
19.3500,-15.29186413
19.3550,-15.318737
19.3600,-15.34638291
19.3650,-15.37470877
19.3700,-15.40340578
19.3750,-15.43267785
19.3800,-15.46226896
19.3850,-15.49212369
19.3900,-15.52227445
19.3950,-15.55264089
19.4000,-15.58312465
19.4050,-15.61401486
19.4100,-15.6455126
19.4150,-15.67747759
19.4200,-15.71009422
19.4250,-15.7435399
19.4300,-15.77771246
19.4350,-15.81257393
19.4400,-15.84825726
19.4450,-15.88484947
19.4500,-15.92223595
19.4550,-15.96033082
19.4600,-15.99913313
19.4650,-16.03854418
19.4700,-16.07865432
19.4750,-16.11917372
19.4800,-16.16010298
19.4850,-16.20139285
19.4900,-16.24319105
19.4950,-16.2852552
19.5000,-16.32780988
19.5050,-16.37071185
19.5100,-16.41397892
19.5150,-16.45745382
19.5200,-16.50127454
19.5250,-16.54536436
19.5300,-16.58970731
19.5350,-16.63435056
19.5400,-16.67930434
19.5450,-16.7246718
19.5500,-16.77019131
19.5550,-16.81574696
19.5600,-16.86123368
19.5650,-16.90660704
19.5700,-16.95187778
19.5750,-16.99678155
19.5800,-17.04103517
19.5850,-17.08464427
19.5900,-17.12746873
19.5950,-17.16949178
19.6000,-17.21052469
19.6050,-17.25056714
19.6100,-17.28931558
19.6150,-17.32698788
19.6200,-17.36358469
19.6250,-17.39914645
19.6300,-17.43404402
19.6350,-17.46847833
19.6400,-17.50260906
19.6450,-17.53662519
19.6500,-17.57056256
19.6550,-17.60478966
19.6600,-17.63952919
19.6650,-17.67480251
19.6700,-17.71096165
19.6750,-17.74787482
19.6800,-17.78589706
19.6850,-17.82492046
19.6900,-17.86503336
19.6950,-17.90624496
19.7000,-17.94854755
19.7050,-17.99172938
19.7100,-18.03573696
19.7150,-18.08044693
19.7200,-18.12562762
19.7250,-18.17116164
19.7300,-18.21713092
19.7350,-18.26356603
19.7400,-18.31032619
19.7450,-18.35736622
19.7500,-18.40457968
19.7550,-18.45190943
19.7600,-18.4993312
19.7650,-18.54683419
19.7700,-18.59419386
19.7750,-18.64158404
19.7800,-18.68887995
19.7850,-18.73592466
19.7900,-18.78279665
19.7950,-18.82941099
19.8000,-18.87573486
19.8050,-18.92167645
19.8100,-18.96712332
19.8150,-19.01213077
19.8200,-19.0565002
19.8250,-19.10029466
19.8300,-19.1432985
19.8350,-19.18543312
19.8400,-19.22649266
19.8450,-19.26615125
19.8500,-19.30450178
19.8550,-19.34134022
19.8600,-19.37669677
19.8650,-19.41049833
19.8700,-19.44266497
19.8750,-19.47315568
19.8800,-19.50218281
19.8850,-19.52968047
19.8900,-19.55572985
19.8950,-19.58033598
19.9000,-19.60344611
19.9050,-19.62495842
19.9100,-19.64515352
19.9150,-19.66363076
19.9200,-19.68056665
19.9250,-19.69598247
19.9300,-19.70984895
19.9350,-19.7220074
19.9400,-19.73256514
19.9450,-19.74147538
19.9500,-19.74872201
19.9550,-19.7542165
19.9600,-19.75782652
19.9650,-19.75975592
19.9700,-19.75993138
19.9750,-19.75837894
19.9800,-19.75522947
19.9850,-19.75047652
19.9900,-19.74420812
19.9950,-19.73636309
20.0000,-19.72700842
20.0050,-19.71613473
20.0100,-19.70360874
20.0150,-19.68968075
20.0200,-19.6745215
20.0250,-19.65797706
20.0300,-19.64016462
20.0350,-19.62118203
20.0400,-19.60086274
20.0450,-19.57948421
20.0500,-19.55683084
20.0550,-19.53318549
20.0600,-19.50830281
20.0650,-19.48223505
20.0700,-19.45524899
20.0750,-19.42721937
20.0800,-19.39833071
20.0850,-19.36873608
20.0900,-19.33836964
20.0950,-19.30732009
20.1000,-19.27568584
20.1050,-19.24370427
20.1100,-19.21160684
20.1150,-19.17931659
20.1200,-19.14697265
20.1250,-19.11455901
20.1300,-19.08195641
20.1350,-19.04917748
20.1400,-19.01613696
20.1450,-18.98290226
20.1500,-18.94934639
20.1550,-18.91581342
20.1600,-18.88216287
20.1650,-18.84850376
20.1700,-18.81485164
20.1750,-18.7811036
20.1800,-18.74715353
20.1850,-18.71310964
20.1900,-18.6788672
20.1950,-18.64440412
20.2000,-18.60988371
20.2050,-18.57533637
20.2100,-18.54088172
20.2150,-18.50684011
20.2200,-18.47308527
20.2250,-18.43961109
20.2300,-18.40642411
20.2350,-18.37361315
20.2400,-18.34118986
20.2450,-18.3091592
20.2500,-18.27751961
20.2550,-18.24625182
20.2600,-18.21552415
20.2650,-18.18517252
20.2700,-18.15524542
20.2750,-18.12573164
20.2800,-18.09652009
20.2850,-18.06756844
20.2900,-18.0388521
20.2950,-18.01053067
20.3000,-17.98237748
20.3050,-17.95454788
20.3100,-17.92713547
20.3150,-17.89985488
20.3200,-17.87234418
20.3250,-17.84470223
20.3300,-17.81652608
20.3350,-17.7874625
20.3400,-17.75760144
20.3450,-17.72648697
20.3500,-17.69428105
20.3550,-17.66087556
20.3600,-17.62659225
20.3650,-17.59154723
20.3700,-17.5559453
20.3750,-17.51979198
20.3800,-17.48312184
20.3850,-17.44594472
20.3900,-17.40812945
20.3950,-17.36985163
20.4000,-17.33115197
20.4050,-17.29203151
20.4100,-17.25225246
20.4150,-17.21210033
20.4200,-17.17152633
20.4250,-17.13048734
20.4300,-17.08920556
20.4350,-17.04765835
20.4400,-17.00591044
20.4450,-16.96392632
20.4500,-16.92159899
20.4550,-16.87876519
20.4600,-16.83541872
20.4650,-16.79130313
20.4700,-16.7463146
20.4750,-16.70061381
20.4800,-16.65416757
20.4850,-16.60696895
20.4900,-16.55920566
20.4950,-16.51092118
20.5000,-16.46213718
20.5050,-16.41282153
20.5100,-16.36291465
20.5150,-16.31233465
20.5200,-16.2610414
20.5250,-16.20909849
20.5300,-16.15640354
20.5350,-16.10286687
20.5400,-16.04850132
20.5450,-15.99325356
20.5500,-15.93738493
20.5550,-15.88080636
20.5600,-15.82339348
20.5650,-15.76523386
20.5700,-15.70636976
20.5750,-15.64688488
20.5800,-15.58677962
20.5850,-15.52628972
20.5900,-15.4652516
20.5950,-15.4035609
20.6000,-15.34148483
20.6050,-15.27888788
20.6100,-15.21568866
20.6150,-15.15208705
20.6200,-15.08823551
20.6250,-15.02416243
20.6300,-14.96004436
20.6350,-14.8960724
20.6400,-14.83239681
20.6450,-14.76891657
20.6500,-14.70570822
20.6550,-14.64231951
20.6600,-14.57849338
20.6650,-14.51393961
20.6700,-14.44838325
20.6750,-14.38182895
20.6800,-14.31432721
20.6850,-14.24593942
20.6900,-14.17671637
20.6950,-14.10675231
20.7000,-14.03606934
20.7050,-13.96473481
20.7100,-13.89297702
20.7150,-13.82086882
20.7200,-13.74840956
20.7250,-13.67589432
20.7300,-13.60353268
20.7350,-13.53138338
20.7400,-13.45963053
20.7450,-13.38838472
20.7500,-13.31808723
20.7550,-13.24878529
20.7600,-13.18059738
20.7650,-13.11370819
20.7700,-13.04850185
20.7750,-12.98512485
20.7800,-12.92367283
20.7850,-12.86410522
20.7900,-12.80633544
20.7950,-12.75040566
20.8000,-12.69630518
20.8050,-12.6443408
20.8100,-12.59419238
20.8150,-12.54599851
20.8200,-12.49988559
20.8250,-12.45579249
20.8300,-12.41379848
20.8350,-12.37377501
20.8400,-12.33562172
20.8450,-12.29912877
20.8500,-12.26420575
20.8550,-12.23077651
20.8600,-12.1988702
20.8650,-12.16841984
20.8700,-12.13932397
20.8750,-12.11164415
20.8800,-12.08522706
20.8850,-12.06006704
20.8900,-12.0360963
20.8950,-12.01315544
20.9000,-11.99125918
20.9050,-11.97011306
20.9100,-11.9497133
20.9150,-11.92978657
20.9200,-11.91017844
20.9250,-11.89067887
20.9300,-11.87104049
20.9350,-11.85125485
20.9400,-11.83076605
20.9450,-11.80972214
20.9500,-11.78753668
20.9550,-11.76471746
20.9600,-11.74129207
20.9650,-11.71718212
20.9700,-11.69222749
20.9750,-11.66635928
20.9800,-11.63933716
20.9850,-11.61129437
20.9900,-11.58203346
20.9950,-11.55153751
21.0000,-11.51966207
21.0050,-11.4864216
21.0100,-11.45184071
21.0150,-11.41597287
21.0200,-11.37883163
21.0250,-11.34033393
21.0300,-11.30057072
21.0350,-11.25948556
21.0400,-11.21712343
21.0450,-11.17346609
21.0500,-11.12845466
21.0550,-11.08182096
21.0600,-11.03370932
21.0650,-10.9841574
21.0700,-10.93301382
21.0750,-10.88035423
21.0800,-10.82637468
21.0850,-10.77142312
21.0900,-10.7157373
21.0950,-10.65957429
21.1000,-10.60304227
21.1050,-10.54614671
21.1100,-10.48928864
21.1150,-10.43260913
21.1200,-10.37627787
21.1250,-10.32034371
21.1300,-10.26477254
21.1350,-10.20985077
21.1400,-10.15542543
21.1450,-10.10185253
21.1500,-10.04911115
21.1550,-9.997480775
21.1600,-9.946894023
21.1650,-9.89740443
21.1700,-9.848854484
21.1750,-9.801078196
21.1800,-9.753927354
21.1850,-9.707385388
21.1900,-9.661322528
21.1950,-9.615672364
21.2000,-9.570486198
21.2050,-9.525906008
21.2100,-9.481887992
21.2150,-9.438079959
21.2200,-9.394704623
21.2250,-9.351392677
21.2300,-9.30836877
21.2350,-9.265192316
21.2400,-9.221999397
21.2450,-9.178719852
21.2500,-9.135631445
21.2550,-9.092319122
21.2600,-9.048659591
21.2650,-9.004597062
21.2700,-8.960140362
21.2750,-8.915098845
21.2800,-8.86948343
21.2850,-8.823089759
21.2900,-8.776126979
21.2950,-8.728393238
21.3000,-8.680162433
21.3050,-8.63149123
21.3100,-8.582460783
21.3150,-8.532767515
21.3200,-8.482483202
21.3250,-8.43180676
21.3300,-8.380517093
21.3350,-8.328415048
21.3400,-8.275523056
21.3450,-8.221701353
21.3500,-8.166598844
21.3550,-8.110581429
21.3600,-8.053367626
21.3650,-7.995039236
21.3700,-7.935517157
21.3750,-7.874812668
21.3800,-7.812883976
21.3850,-7.749802958
21.3900,-7.685534658
21.3950,-7.620003504
21.4000,-7.553577585
21.4050,-7.486201269
21.4100,-7.418044602
21.4150,-7.349111886
21.4200,-7.27961335
21.4250,-7.210053057
21.4300,-7.140703332
21.4350,-7.071924844
21.4400,-7.003924063
21.4450,-6.936822169
21.4500,-6.87084549
21.4550,-6.80629697
21.4600,-6.74352097
21.4650,-6.682674454
21.4700,-6.623827343
21.4750,-6.567214515
21.4800,-6.513070833
21.4850,-6.461345496
21.4900,-6.412119588
21.4950,-6.365682647
21.5000,-6.321788778
21.5050,-6.280399511
21.5100,-6.241546603
21.5150,-6.205277214
21.5200,-6.171278033
21.5250,-6.139664092
21.5300,-6.110277494
21.5350,-6.083135813
21.5400,-6.058070146
21.5450,-6.034748696
21.5500,-6.013036467
21.5550,-5.992673293
21.5600,-5.973292144
21.5650,-5.954844364
21.5700,-5.936956801
21.5750,-5.919476665
21.5800,-5.902267275
21.5850,-5.884927918
21.5900,-5.867234322
21.5950,-5.848996787
21.6000,-5.829936629
21.6050,-5.809366572
21.6100,-5.787253179
21.6150,-5.763846502
21.6200,-5.739012714
21.6250,-5.712504584
21.6300,-5.684321381
21.6350,-5.654696633
21.6400,-5.623502342
21.6450,-5.590839789
21.6500,-5.556987773
21.6550,-5.521840082
21.6600,-5.485622973
21.6650,-5.448441858
21.6700,-5.410450097
21.6750,-5.371792394
21.6800,-5.332640767
21.6850,-5.293018463
21.6900,-5.253158374
21.6950,-5.213115281
21.7000,-5.172818315
21.7050,-5.13279084
21.7100,-5.093145481
21.7150,-5.054112606
21.7200,-5.015713558
21.7250,-4.978020953
21.7300,-4.941226264
21.7350,-4.905347919
21.7400,-4.870748488
21.7450,-4.837536241
21.7500,-4.805910811
21.7550,-4.775729212
21.7600,-4.747090157
21.7650,-4.720034411
21.7700,-4.694715022
21.7750,-4.670924906
21.7800,-4.648659063
21.7850,-4.628103283
21.7900,-4.609423102
21.7950,-4.592139176
21.8000,-4.576086589
21.8050,-4.561094491
21.8100,-4.546776306
21.8150,-4.533494412
21.8200,-4.521148754
21.8250,-4.509622188
21.8300,-4.498610892
21.8350,-4.487540462
21.8400,-4.476285233
21.8450,-4.464945074
21.8500,-4.453270557
21.8550,-4.441234815
21.8600,-4.428843427
21.8650,-4.415841159
21.8700,-4.402216201
21.8750,-4.388062387
21.8800,-4.373379514
21.8850,-4.358106715
21.8900,-4.342187078
21.8950,-4.325573332
21.9000,-4.308213103
21.9050,-4.290593551
21.9100,-4.272530844
21.9150,-4.253999565
21.9200,-4.235194505
21.9250,-4.216211244
21.9300,-4.196959385
21.9350,-4.177571339
21.9400,-4.158156309
21.9450,-4.138929602
21.9500,-4.119845053
21.9550,-4.100945669
21.9600,-4.082198786
21.9650,-4.063739151
21.9700,-4.045662252
21.9750,-4.02781373
21.9800,-4.010173333
21.9850,-3.99284768
21.9900,-3.9757069
21.9950,-3.958894142
22.0000,-3.942583451
22.0050,-3.926640984
22.0100,-3.911129713
22.0150,-3.896059436
22.0200,-3.881517275
22.0250,-3.86747572
22.0300,-3.854042749
22.0350,-3.841260849
22.0400,-3.829009158
22.0450,-3.817533265
22.0500,-3.806798398
22.0550,-3.79690299
22.0600,-3.787791605
22.0650,-3.779367696
22.0700,-3.771682236
22.0750,-3.764848998
22.0800,-3.758715188
22.0850,-3.753077943
22.0900,-3.747611627
22.0950,-3.742729993
22.1000,-3.738394397
22.1050,-3.734757138
22.1100,-3.73215028
22.1150,-3.7300432
22.1200,-3.728483602
22.1250,-3.727418013
22.1300,-3.726870112
22.1350,-3.72726628
22.1400,-3.72829825
22.1450,-3.729872277
22.1500,-3.73191454
22.1550,-3.734129917
22.1600,-3.736512693
22.1650,-3.739057582
22.1700,-3.741828879
22.1750,-3.744865172
22.1800,-3.747983061
22.1850,-3.75126364
22.1900,-3.754884586
22.1950,-3.758960921
22.2000,-3.763616184
22.2050,-3.768906339
22.2100,-3.775050862
22.2150,-3.782036777
22.2200,-3.789739563
22.2250,-3.798247414
22.2300,-3.807486761
22.2350,-3.817448077
22.2400,-3.828083891
22.2450,-3.839433102
22.2500,-3.851382148
22.2550,-3.864058879
22.2600,-3.877594815
22.2650,-3.891749344
22.2700,-3.906324708
22.2750,-3.921588829
22.2800,-3.937434838
22.2850,-3.953775353
22.2900,-3.970795136
22.2950,-3.988416767
22.3000,-4.006546459
22.3050,-4.025043126
22.3100,-4.043913323
22.3150,-4.063327542
22.3200,-4.083391561
22.3250,-4.103911348
22.3300,-4.124961611
22.3350,-4.146546956
22.3400,-4.168869063
22.3450,-4.191682519
22.3500,-4.214917182
22.3550,-4.238584053
22.3600,-4.262869216
22.3650,-4.287699027
22.3700,-4.313163962
22.3750,-4.339209291
22.3800,-4.365922977
22.3850,-4.393067388
22.3900,-4.420990446
22.3950,-4.449284044
22.4000,-4.478008575
22.4050,-4.506914738
22.4100,-4.53577809
22.4150,-4.564580663
22.4200,-4.593283293
22.4250,-4.62190309
22.4300,-4.650322834
22.4350,-4.678581715
22.4400,-4.706917762
22.4450,-4.735295521
22.4500,-4.763824007
22.4550,-4.792373578
22.4600,-4.821094364
22.4650,-4.849833288
22.4700,-4.878484243
22.4750,-4.906765329
22.4800,-4.934631478
22.4850,-4.96202255
22.4900,-4.988919601
22.4950,-5.015354692
22.5000,-5.041278202
22.5050,-5.066630654
22.5100,-5.091458194
22.5150,-5.115668968
22.5200,-5.139486858
22.5250,-5.163242218
22.5300,-5.187161259
22.5350,-5.211329942
22.5400,-5.23581593
22.5450,-5.260674608
22.5500,-5.286256887
22.5550,-5.312258161
22.5600,-5.338615146
22.5650,-5.365338973
22.5700,-5.392546901
22.5750,-5.420048225
22.5800,-5.447829188
22.5850,-5.475954568
22.5900,-5.504338475
22.5950,-5.533423377
22.6000,-5.563094145
22.6050,-5.59377439
22.6100,-5.62569867
22.6150,-5.658766214
22.6200,-5.692997668
22.6250,-5.728612026
22.6300,-5.765581729
22.6350,-5.80375453
22.6400,-5.843124123
22.6450,-5.883788912
22.6500,-5.92577153
22.6550,-5.969048126
22.6600,-6.013358862
22.6650,-6.058896893
22.6700,-6.105516576
22.6750,-6.153152348
22.6800,-6.201768933
22.6850,-6.251621726
22.6900,-6.302653829
22.6950,-6.354924397
22.7000,-6.408402538
22.7050,-6.463045908
22.7100,-6.518790119
22.7150,-6.575653306
22.7200,-6.633405824
22.7250,-6.692014392
22.7300,-6.75147787
22.7350,-6.811506365
22.7400,-6.872057905
22.7450,-6.93303723
22.7500,-6.994355532
22.7550,-7.056156905
22.7600,-7.118254903
22.7650,-7.180511491
22.7700,-7.242807881
22.7750,-7.30521196
22.7800,-7.367562959
22.7850,-7.429740688
22.7900,-7.491618947
22.7950,-7.553034608
22.8000,-7.613900926
22.8050,-7.674405992
22.8100,-7.734489255
22.8150,-7.794289357
22.8200,-7.8539262
22.8250,-7.913097261
22.8300,-7.971940824
22.8350,-8.030818702
22.8400,-8.089786753
22.8450,-8.148973623
22.8500,-8.208238782
22.8550,-8.268085276
22.8600,-8.32869227
22.8650,-8.390201547
22.8700,-8.452754375
22.8750,-8.516601521
22.8800,-8.581943469
22.8850,-8.648517906
22.8900,-8.716428902
22.8950,-8.785088058
22.9000,-8.854588254
22.9050,-8.924538263
22.9100,-8.994758787
22.9150,-9.065165731
22.9200,-9.135971713
22.9250,-9.207311272
22.9300,-9.279220261
22.9350,-9.351915408
22.9400,-9.42567448
22.9450,-9.500842469
22.9500,-9.57745609
22.9550,-9.655696501
22.9600,-9.735721398
22.9650,-9.817348515
22.9700,-9.900778164
22.9750,-9.985843485
22.9800,-10.07228503
22.9850,-10.15974968
22.9900,-10.24811377
22.9950,-10.33741056
23.0000,-10.42751316
23.0050,-10.51817489
23.0100,-10.60929693
23.0150,-10.70081192
23.0200,-10.79270633
23.0250,-10.88514948
23.0300,-10.97805501
23.0350,-11.0714836
23.0400,-11.16546478
23.0450,-11.25992283
23.0500,-11.3546011
23.0550,-11.44946368
23.0600,-11.54435824
23.0650,-11.63939658
23.0700,-11.73464995
23.0750,-11.83002941
23.0800,-11.92566396
23.0850,-12.02150844
23.0900,-12.11745411
23.0950,-12.21342012
23.1000,-12.30964443
23.1050,-12.40585727
23.1100,-12.50195969
23.1150,-12.59783332
23.1200,-12.69314358
23.1250,-12.78797166
23.1300,-12.88216434
23.1350,-12.97555305
23.1400,-13.06808168
23.1450,-13.15946938
23.1500,-13.24976099
23.1550,-13.33864813
23.1600,-13.42616899
23.1650,-13.51214333
23.1700,-13.59681483
23.1750,-13.67999516
23.1800,-13.76193764
23.1850,-13.84280398
23.1900,-13.9224517
23.1950,-14.00091671
23.2000,-14.07836185
23.2050,-14.15469262
23.2100,-14.22986716
23.2150,-14.30401328
23.2200,-14.37693359
23.2250,-14.44840611
23.2300,-14.51827669
23.2350,-14.58657526
23.2400,-14.65303315
23.2450,-14.71742932
23.2500,-14.77980066
23.2550,-14.84027727
23.2600,-14.89879154
23.2650,-14.95584106
23.2700,-15.01132177
23.2750,-15.0656228
23.2800,-15.11917536
23.2850,-15.17225559
23.2900,-15.22478291
23.2950,-15.2768615
23.3000,-15.32849249
23.3050,-15.37979877
23.3100,-15.43047065
23.3150,-15.48045682
23.3200,-15.52957428
23.3250,-15.57735694
23.3300,-15.62367742
23.3350,-15.66838096
23.3400,-15.71138558
23.3450,-15.75271771
23.3500,-15.7926391
23.3550,-15.8313525
23.3600,-15.86931869
23.3650,-15.9066161
23.3700,-15.94327357
23.3750,-15.97919168
23.3800,-16.01412116
23.3850,-16.04803423
23.3900,-16.08097908
23.3950,-16.11284697
23.4000,-16.1436446
23.4050,-16.17319943
23.4100,-16.20145245
23.4150,-16.22870399
23.4200,-16.25500739
23.4250,-16.28039687
23.4300,-16.30503265
23.4350,-16.32863012
23.4400,-16.35132742
23.4450,-16.37324206
23.4500,-16.39406282
23.4550,-16.41382362
23.4600,-16.43231682
23.4650,-16.44974972
23.4700,-16.46587428
23.4750,-16.48048811
23.4800,-16.49335852
23.4850,-16.50441499
23.4900,-16.51378853
23.4950,-16.52148956
23.5000,-16.52759373
23.5050,-16.5322848
23.5100,-16.53530994
23.5150,-16.53673565
23.5200,-16.53658751
23.5250,-16.53478054
23.5300,-16.53164399
23.5350,-16.52714897
23.5400,-16.52147914
23.5450,-16.51488239
23.5500,-16.50741278
23.5550,-16.4990339
23.5600,-16.48979899
23.5650,-16.4795886
23.5700,-16.46827423
23.5750,-16.45578738
23.5800,-16.4418856
23.5850,-16.42643125
23.5900,-16.40956087
23.5950,-16.39105398
23.6000,-16.37120582
23.6050,-16.3501136
23.6100,-16.32817107
23.6150,-16.30546052
23.6200,-16.28206767
23.6250,-16.258242
23.6300,-16.23403212
23.6350,-16.20964134
23.6400,-16.18492064
23.6450,-16.15989353
23.6500,-16.13457332
23.6550,-16.10872141
23.6600,-16.08210034
23.6650,-16.05462244
23.6700,-16.02626065
23.6750,-15.99718211
23.6800,-15.96757316
23.6850,-15.93758845
23.6900,-15.90705633
23.6950,-15.8763263
23.7000,-15.84511276
23.7050,-15.81355699
23.7100,-15.78190399
23.7150,-15.74975367
23.7200,-15.7173011
23.7250,-15.68443194
23.7300,-15.65131879
23.7350,-15.61825482
23.7400,-15.5853828
23.7450,-15.55272794
23.7500,-15.52062423
23.7550,-15.48908955
23.7600,-15.45830389
23.7650,-15.42798518
23.7700,-15.39814537
23.7750,-15.36912302
23.7800,-15.34096198
23.7850,-15.31381416
23.7900,-15.28756892
23.7950,-15.26225187
23.8000,-15.23764082
23.8050,-15.21352215
23.8100,-15.19001271
23.8150,-15.16674825
23.8200,-15.14340616
23.8250,-15.1199726
23.8300,-15.09592447
23.8350,-15.07103445
23.8400,-15.04523311
23.8450,-15.01842609
23.8500,-14.99075332
23.8550,-14.96230792
23.8600,-14.93341866
23.8650,-14.90408664
23.8700,-14.87462399
23.8750,-14.8451385
23.8800,-14.81580166
23.8850,-14.78675539
23.8900,-14.75792242
23.8950,-14.72953363
23.9000,-14.7013457
23.9050,-14.67344856
23.9100,-14.64564351
23.9150,-14.61810027
23.9200,-14.59089361
23.9250,-14.56410451
23.9300,-14.53786417
23.9350,-14.51232647
23.9400,-14.48767026
23.9450,-14.46411111
23.9500,-14.44170107
23.9550,-14.42070269
23.9600,-14.40133442
23.9650,-14.38373473
23.9700,-14.3679511
23.9750,-14.3540348
23.9800,-14.34196351
23.9850,-14.33166381
23.9900,-14.32336526
23.9950,-14.31677482
24.0000,-14.31193635
24.0050,-14.30879696
24.0100,-14.30716733
24.0150,-14.30705303
24.0200,-14.30829365
24.0250,-14.31098788
24.0300,-14.3146949
24.0350,-14.31924182
24.0400,-14.32410186
24.0450,-14.3292262
24.0500,-14.334324
24.0550,-14.3394973
24.0600,-14.34461664
24.0650,-14.34977997
24.0700,-14.35486447
24.0750,-14.35966541
24.0800,-14.36402012
24.0850,-14.36780972
24.0900,-14.37111205
24.0950,-14.37405825
24.1000,-14.3765603
24.1050,-14.37869432
24.1100,-14.38029048
24.1150,-14.38138217
24.1200,-14.38204455
24.1250,-14.38206098
24.1300,-14.38170167
24.1350,-14.38103708
24.1400,-14.38010653
24.1450,-14.37885568
24.1500,-14.37725002
24.1550,-14.37545321
24.1600,-14.37336703
24.1650,-14.3711155
24.1700,-14.36883901
24.1750,-14.36654392
24.1800,-14.36432713
24.1850,-14.3622449
24.1900,-14.36041464
24.1950,-14.35860301
24.2000,-14.35689624
24.2050,-14.35511918
24.2100,-14.35355255
24.2150,-14.35217412
24.2200,-14.35114323
24.2250,-14.35067729
24.2300,-14.35069631
24.2350,-14.35100185
24.2400,-14.3517214
24.2450,-14.35259836
24.2500,-14.35353442
24.2550,-14.35450536
24.2600,-14.3550411
24.2650,-14.35522537
24.2700,-14.35477512
24.2750,-14.35357385
24.2800,-14.35151321
24.2850,-14.34889637
24.2900,-14.34567686
24.2950,-14.34201108
24.3000,-14.33815932
24.3050,-14.33417645
24.3100,-14.33002616
24.3150,-14.32565458
24.3200,-14.32105229
24.3250,-14.31623138
24.3300,-14.31111853
24.3350,-14.30570407
24.3400,-14.30023181
24.3450,-14.29451995
24.3500,-14.28862335
24.3550,-14.28241906
24.3600,-14.27575801
24.3650,-14.26868865
24.3700,-14.26126932
24.3750,-14.25361041
24.3800,-14.24564817
24.3850,-14.23742554
24.3900,-14.22874449
24.3950,-14.21965096
24.4000,-14.20998371
24.4050,-14.19973989
24.4100,-14.18894533
24.4150,-14.17748348
24.4200,-14.16541567
24.4250,-14.15313746
24.4300,-14.14067216
24.4350,-14.12806554
24.4400,-14.11547926
24.4450,-14.10315035
24.4500,-14.09140388
24.4550,-14.08031252
24.4600,-14.07020538
24.4650,-14.06123572
24.4700,-14.05347575
24.4750,-14.04718819
24.4800,-14.04236843
24.4850,-14.03904754
24.4900,-14.03715596
24.4950,-14.03652945
24.5000,-14.03716538
24.5050,-14.03905112
24.5100,-14.04195146
24.5150,-14.0457551
24.5200,-14.05044995
24.5250,-14.05547793
24.5300,-14.06092742
24.5350,-14.06676755
24.5400,-14.07281828
24.5450,-14.07903284
24.5500,-14.08532399
24.5550,-14.09149533
24.5600,-14.09770395
24.5650,-14.10357151
24.5700,-14.10921569
24.5750,-14.11465205
24.5800,-14.11981114
24.5850,-14.12449574
24.5900,-14.12863151
24.5950,-14.13223209
24.6000,-14.13517151
24.6050,-14.13742128
24.6100,-14.13899308
24.6150,-14.13995276
24.6200,-14.14031563
24.6250,-14.13986092
24.6300,-14.13878703
24.6350,-14.1370342
24.6400,-14.13478524
24.6450,-14.13223533
24.6500,-14.12945322
24.6550,-14.12655415
24.6600,-14.12397232
24.6650,-14.1217001
24.6700,-14.11974743
24.6750,-14.11804317
24.6800,-14.11678159
24.6850,-14.11588947
24.6900,-14.11544334
24.6950,-14.11524711
24.7000,-14.115374
24.7050,-14.11572659
24.7100,-14.1164152
24.7150,-14.11760556
24.7200,-14.11929861
24.7250,-14.1212831
24.7300,-14.12363081
24.7350,-14.12651268
24.7400,-14.1298179
24.7450,-14.13351194
24.7500,-14.13739567
24.7550,-14.14135557
24.7600,-14.14530596
24.7650,-14.14930954
24.7700,-14.15328863
24.7750,-14.15718441
24.7800,-14.16091333
24.7850,-14.16461029
24.7900,-14.16801388
24.7950,-14.17146941
24.8000,-14.17472062
24.8050,-14.17797009
24.8100,-14.18108565
24.8150,-14.18400827
24.8200,-14.18660099
24.8250,-14.18893095
24.8300,-14.19079037
24.8350,-14.19215526
24.8400,-14.19318333
24.8450,-14.19370697
24.8500,-14.19395285
24.8550,-14.19398317
24.8600,-14.19385948
24.8650,-14.19383953
24.8700,-14.19405713
24.8750,-14.19451735
24.8800,-14.19552939
24.8850,-14.1971246
24.8900,-14.19932629
24.8950,-14.20218898
24.9000,-14.20551013
24.9050,-14.2093288
24.9100,-14.21365702
24.9150,-14.21836042
24.9200,-14.22356627
24.9250,-14.22936088
24.9300,-14.23568662
24.9350,-14.24257616
24.9400,-14.24966726
24.9450,-14.25678326
24.9500,-14.26377087
24.9550,-14.27035882
24.9600,-14.27615101
24.9650,-14.28107743
24.9700,-14.28510377
24.9750,-14.2881413
24.9800,-14.29019106
24.9850,-14.2911821
24.9900,-14.29112787
24.9950,-14.28985569
25.0000,-14.28726262
25.0050,-14.28315571
25.0100,-14.27713806
25.0150,-14.26896169
25.0200,-14.25840522
25.0250,-14.24520016
25.0300,-14.2289993
25.0350,-14.20987721
25.0400,-14.18784469
25.0450,-14.16305452
25.0500,-14.13565522
25.0550,-14.1059907
25.0600,-14.074194
25.0650,-14.04037362
25.0700,-14.00481048
25.0750,-13.96775091
25.0800,-13.92955325
25.0850,-13.89045132
25.0900,-13.85088603
25.0950,-13.81112832
25.1000,-13.77146661
25.1050,-13.7322637
25.1100,-13.69389057
25.1150,-13.65658393
25.1200,-13.62066764
25.1250,-13.58650763
25.1300,-13.55433221
25.1350,-13.52418955
25.1400,-13.49588425
25.1450,-13.46954052
25.1500,-13.44493163
25.1550,-13.42162693
25.1600,-13.39945227
25.1650,-13.37804443
25.1700,-13.35715386
25.1750,-13.33659728
25.1800,-13.3160764
25.1850,-13.29546838
25.1900,-13.27469514
25.1950,-13.25358261
25.2000,-13.23240569
25.2050,-13.2112181
25.2100,-13.19006923
25.2150,-13.16924539
25.2200,-13.14870457
25.2250,-13.12848377
25.2300,-13.10868588
25.2350,-13.08928115
25.2400,-13.07050459
25.2450,-13.05242819
25.2500,-13.03539816
25.2550,-13.01946004
25.2600,-13.00474056
25.2650,-12.99131713
25.2700,-12.9789962
25.2750,-12.96791619
25.2800,-12.95782571
25.2850,-12.94869896
25.2900,-12.94025257
25.2950,-12.93251461
25.3000,-12.92545832
25.3050,-12.91894753
25.3100,-12.91307979
25.3150,-12.90762502
25.3200,-12.90279661
25.3250,-12.8986697
25.3300,-12.89543057
25.3350,-12.89296767
25.3400,-12.89160813
25.3450,-12.89124223
25.3500,-12.89198778
25.3550,-12.89387771
25.3600,-12.89701447
25.3650,-12.90143881
25.3700,-12.90722513
25.3750,-12.91447106
25.3800,-12.92311427
25.3850,-12.93316769
25.3900,-12.94466612
25.3950,-12.95006475
25.4000,-12.95605743
25.4050,-12.96271101
25.4100,-12.97010151
25.4150,-12.97830934
25.4200,-12.98741199
25.4250,-12.99747514
25.4300,-13.00854396
25.4350,-13.02063557
25.4400,-13.03373334
25.4450,-13.04778359
25.4500,-13.06269523
25.4550,-13.078342
25.4600,-13.094566
25.4650,-13.11118121
25.4700,-13.12797705
25.4750,-13.14472305
25.4800,-13.16117414
25.4850,-13.17707581
25.4900,-13.19217046
25.4950,-13.20620557
25.5000,-13.21894365
25.5050,-13.23017392
25.5100,-13.23972639
25.5150,-13.24748761
25.5200,-13.25341792
25.5250,-13.2575698
25.5300,-13.2601066
25.5350,-13.26132038
