type,name,time_units,begin_time,frequency,count,units
signal,"Noraxon MyoMotion-Segments-Forearm RT-Pitch","s",0.0000,200,5108,"deg"

time,value
0.0000,9.351160046
0.0050,9.361039567
0.0100,9.370919101
0.0150,9.380798645
0.0200,9.391575751
0.0250,9.403211716
0.0300,9.415658201
0.0350,9.428859751
0.0400,9.44275552
0.0450,9.45728005
0.0500,9.472363595
0.0550,9.487932387
0.0600,9.503908962
0.0650,9.52021267
0.0700,9.536760002
0.0750,9.553464644
0.0800,9.570238225
0.0850,9.586991608
0.0900,9.603635557
0.0950,9.62008105
0.1000,9.636239796
0.1050,9.652024356
0.1100,9.667348201
0.1150,9.68212669
0.1200,9.69627885
0.1250,9.709729028
0.1300,9.722408035
0.1350,9.734254437
0.1400,9.745216549
0.1450,9.755254628
0.1500,9.764342623
0.1550,9.783087472
0.1600,9.8006821
0.1650,9.817080779
0.1700,9.832224714
0.1750,9.846236715
0.1800,9.859062756
0.1850,9.870829314
0.1900,9.881622722
0.1950,9.891406939
0.2000,9.900300517
0.2050,9.908463165
0.2100,9.915674848
0.2150,9.922256938
0.2200,9.928156606
0.2250,9.933358711
0.2300,9.93776566
0.2350,9.941670594
0.2400,9.945028167
0.2450,9.947758385
0.2500,9.950133091
0.2550,9.95209721
0.2600,9.953718611
0.2650,9.955010551
0.2700,9.955871804
0.2750,9.956454732
0.2800,9.956793053
0.2850,9.95689841
0.2900,9.956652236
0.2950,9.956172084
0.3000,9.955500977
0.3050,9.954569283
0.3100,9.953372604
0.3150,9.951935832
0.3200,9.950166415
0.3250,9.948278212
0.3300,9.946151055
0.3350,9.943793252
0.3400,9.941253398
0.3450,9.938534241
0.3500,9.935452961
0.3550,9.932276667
0.3600,9.928850731
0.3650,9.925193123
0.3700,9.921338266
0.3750,9.917291919
0.3800,9.913269039
0.3850,9.909074829
0.3900,9.904638403
0.3950,9.899994069
0.4000,9.895299922
0.4050,9.890317264
0.4100,9.885320707
0.4150,9.880251792
0.4200,9.87500193
0.4250,9.869574666
0.4300,9.86395969
0.4350,9.858335166
0.4400,9.852600879
0.4450,9.846700312
0.4500,9.840668078
0.4550,9.834678025
0.4600,9.828583599
0.4650,9.822543273
0.4700,9.816481056
0.4750,9.810555154
0.4800,9.80465173
0.4850,9.798869465
0.4900,9.793181164
0.4950,9.787751389
0.5000,9.78229482
0.5050,9.777041878
0.5100,9.772076149
0.5150,9.767046718
0.5200,9.762242099
0.5250,9.757835765
0.5300,9.753638193
0.5350,9.749644446
0.5400,9.745958597
0.5450,9.742538364
0.5500,9.739313053
0.5550,9.736227976
0.5600,9.733184838
0.5650,9.730352823
0.5700,9.727781429
0.5750,9.725414529
0.5800,9.723078449
0.5850,9.720764932
0.5900,9.71857914
0.5950,9.716382643
0.6000,9.714143757
0.6050,9.711870165
0.6100,9.70960081
0.6150,9.707311005
0.6200,9.704965179
0.6250,9.702410436
0.6300,9.699830533
0.6350,9.697184499
0.6400,9.694525352
0.6450,9.691768298
0.6500,9.688967148
0.6550,9.686050702
0.6600,9.682972345
0.6650,9.679962722
0.6700,9.676919538
0.6750,9.673817108
0.6800,9.67060963
0.6850,9.667215707
0.6900,9.663696784
0.6950,9.660163054
0.7000,9.656532267
0.7050,9.652885205
0.7100,9.649107853
0.7150,9.645319802
0.7200,9.641390046
0.7250,9.637293106
0.7300,9.633065695
0.7350,9.628578299
0.7400,9.623883571
0.7450,9.618999168
0.7500,9.613853309
0.7550,9.608507977
0.7600,9.603247629
0.7650,9.59776085
0.7700,9.592296243
0.7750,9.586703959
0.7800,9.581057961
0.7850,9.575283218
0.7900,9.569490167
0.7950,9.563767265
0.8000,9.557984398
0.8050,9.552217275
0.8100,9.54637316
0.8150,9.540683642
0.8200,9.534981016
0.8250,9.529213689
0.8300,9.523532865
0.8350,9.517866113
0.8400,9.512320398
0.8450,9.506739731
0.8500,9.501263335
0.8550,9.495917951
0.8600,9.490629615
0.8650,9.485293867
0.8700,9.479989533
0.8750,9.474752023
0.8800,9.469674016
0.8850,9.464665646
0.8900,9.459967415
0.8950,9.455502722
0.9000,9.451217292
0.9050,9.447206793
0.9100,9.443356925
0.9150,9.43968238
0.9200,9.436434077
0.9250,9.433460713
0.9300,9.430714826
0.9350,9.428330087
0.9400,9.426060583
0.9450,9.424004755
0.9500,9.422260902
0.9550,9.420793024
0.9600,9.419690371
0.9650,9.418622221
0.9700,9.417875775
0.9750,9.41730961
0.9800,9.416804777
0.9850,9.416688178
0.9900,9.416914448
0.9950,9.417328565
1.0000,9.41788441
1.0050,9.418568633
1.0100,9.419461299
1.0150,9.42055955
1.0200,9.421946031
1.0250,9.423562191
1.0300,9.425327239
1.0350,9.427267347
1.0400,9.429342141
1.0450,9.431532949
1.0500,9.433827347
1.0550,9.436349024
1.0600,9.438685988
1.0650,9.441077674
1.0700,9.443520592
1.0750,9.446110813
1.0800,9.448995435
1.0850,9.452212473
1.0900,9.455626973
1.0950,9.459312156
1.1000,9.463563511
1.1050,9.468100798
1.1100,9.473049368
1.1150,9.478467464
1.1200,9.484221271
1.1250,9.490374664
1.1300,9.496901579
1.1350,9.503776767
1.1400,9.51092847
1.1450,9.518480065
1.1500,9.526307776
1.1550,9.534523749
1.1600,9.543338828
1.1650,9.552782297
1.1700,9.562898566
1.1750,9.573851533
1.1800,9.585652312
1.1850,9.598683875
1.1900,9.612724442
1.1950,9.628087216
1.2000,9.645010797
1.2050,9.663486048
1.2100,9.683795133
1.2150,9.705989686
1.2200,9.729715136
1.2250,9.755276968
1.2300,9.782446826
1.2350,9.811025094
1.2400,9.840951019
1.2450,9.872181116
1.2500,9.904478796
1.2550,9.937720818
1.2600,9.971781033
1.2650,10.00670736
1.2700,10.04212317
1.2750,10.07814365
1.2800,10.11464886
1.2850,10.1515822
1.2900,10.18905072
1.2950,10.22710467
1.3000,10.26583269
1.3050,10.30524004
1.3100,10.34535601
1.3150,10.38617321
1.3200,10.42795009
1.3250,10.47062718
1.3300,10.51434374
1.3350,10.55902787
1.3400,10.60470922
1.3450,10.65161237
1.3500,10.69969626
1.3550,10.74880877
1.3600,10.79933614
1.3650,10.85128322
1.3700,10.90470948
1.3750,10.95965761
1.3800,11.0163053
1.3850,11.07473621
1.3900,11.13536527
1.3950,11.19819318
1.4000,11.26328769
1.4050,11.33109622
1.4100,11.401839
1.4150,11.47540665
1.4200,11.55218717
1.4250,11.63240686
1.4300,11.71621723
1.4350,11.80383673
1.4400,11.89542032
1.4450,11.99101235
1.4500,12.09080969
1.4550,12.19490237
1.4600,12.30331519
1.4650,12.41588888
1.4700,12.53291858
1.4750,12.65440276
1.4800,12.7804426
1.4850,12.9109965
1.4900,13.04635968
1.4950,13.18655481
1.5000,13.33173089
1.5050,13.48202856
1.5100,13.6374836
1.5150,13.79830245
1.5200,13.96473211
1.5250,14.13674018
1.5300,14.31443909
1.5350,14.49792785
1.5400,14.68731879
1.5450,14.8824926
1.5500,15.08335477
1.5550,15.28982121
1.5600,15.50179985
1.5650,15.71913449
1.5700,15.94158395
1.5750,16.16916802
1.5800,16.40158723
1.5850,16.63857036
1.5900,16.87973145
1.5950,17.1249713
1.6000,17.37392551
1.6050,17.62637185
1.6100,17.88222137
1.6150,18.14124861
1.6200,18.40318577
1.6250,18.66801342
1.6300,18.93555406
1.6350,19.20563921
1.6400,19.47832934
1.6450,19.75327844
1.6500,20.03035747
1.6550,20.30946116
1.6600,20.59048329
1.6650,20.8731971
1.6700,21.15739166
1.6750,21.44304414
1.6800,21.72983244
1.6850,22.0177866
1.6900,22.30652368
1.6950,22.59592055
1.7000,22.88594482
1.7050,23.17613773
1.7100,23.46640281
1.7150,23.75676531
1.7200,24.04698847
1.7250,24.33692873
1.7300,24.62663208
1.7350,24.91594162
1.7400,25.20473644
1.7450,25.4930752
1.7500,25.78085982
1.7550,26.06791987
1.7600,26.35446148
1.7650,26.64046642
1.7700,26.92577927
1.7750,27.21015831
1.7800,27.49382168
1.7850,27.77657266
1.7900,28.05844002
1.7950,28.33940429
1.8000,28.61931404
1.8050,28.89823822
1.8100,29.17628198
1.8150,29.45338205
1.8200,29.7295967
1.8250,30.00478842
1.8300,30.27918722
1.8350,30.55278317
1.8400,30.82548238
1.8450,31.09741309
1.8500,31.36863139
1.8550,31.6391571
1.8600,31.90907371
1.8650,32.17832457
1.8700,32.44706313
1.8750,32.71502508
1.8800,32.98249143
1.8850,33.24924599
1.8900,33.51544045
1.8950,33.78083974
1.9000,34.04567359
1.9050,34.3100181
1.9100,34.57364426
1.9150,34.83660817
1.9200,35.09875364
1.9250,35.35996685
1.9300,35.62031229
1.9350,35.87980556
1.9400,36.13820929
1.9450,36.39554785
1.9500,36.65200973
1.9550,36.90753676
1.9600,37.16192879
1.9650,37.41521673
1.9700,37.66717312
1.9750,37.91787641
1.9800,38.16712139
1.9850,38.41476681
1.9900,38.660823
1.9950,38.90514974
2.0000,39.14767331
2.0050,39.38834856
2.0100,39.62710374
2.0150,39.86380105
2.0200,40.09878787
2.0250,40.33180421
2.0300,40.56278372
2.0350,40.79170064
2.0400,41.01860909
2.0450,41.24355456
2.0500,41.46641709
2.0550,41.68724251
2.0600,41.9056352
2.0650,42.12186331
2.0700,42.33594852
2.0750,42.54796907
2.0800,42.75783561
2.0850,42.96564612
2.0900,43.17136681
2.0950,43.37499683
2.1000,43.57690919
2.1050,43.77709548
2.1100,43.97545732
2.1150,44.17222432
2.1200,44.36741442
2.1250,44.56101205
2.1300,44.75296348
2.1350,44.94314007
2.1400,45.13161289
2.1450,45.31819973
2.1500,45.50294798
2.1550,45.68585183
2.1600,45.86682683
2.1650,46.04609805
2.1700,46.223735
2.1750,46.39996745
2.1800,46.57469479
2.1850,46.74818891
2.1900,46.92045156
2.1950,47.09165695
2.2000,47.2616249
2.2050,47.43034418
2.2100,47.59795697
2.2150,47.76440883
2.2200,47.92994784
2.2250,48.09462024
2.2300,48.25845132
2.2350,48.42152741
2.2400,48.58396013
2.2450,48.74580437
2.2500,48.90696463
2.2550,49.06742171
2.2600,49.22707109
2.2650,49.38575556
2.2700,49.54352446
2.2750,49.69981902
2.2800,49.85472282
2.2850,50.00799179
2.2900,50.15951055
2.2950,50.30937079
2.3000,50.45754279
2.3050,50.60430745
2.3100,50.74960904
2.3150,50.89340887
2.3200,51.03517658
2.3250,51.17501063
2.3300,51.31288071
2.3350,51.44867808
2.3400,51.58252839
2.3450,51.71425751
2.3500,51.84400728
2.3550,51.9719367
2.3600,52.09801458
2.3650,52.22225299
2.3700,52.34460115
2.3750,52.46518579
2.3800,52.58406903
2.3850,52.70121573
2.3900,52.81656659
2.3950,52.93026833
2.4000,53.04220912
2.4050,53.15223904
2.4100,53.2604991
2.4150,53.3665705
2.4200,53.47055701
2.4250,53.57273553
2.4300,53.67302253
2.4350,53.77169064
2.4400,53.86881198
2.4450,53.964467
2.4500,54.05840025
2.4550,54.15067026
2.4600,54.2409941
2.4650,54.32942726
2.4700,54.41571918
2.4750,54.49967932
2.4800,54.58136969
2.4850,54.66059881
2.4900,54.7374299
2.4950,54.81193503
2.5000,54.88418116
2.5050,54.95423427
2.5100,55.02209374
2.5150,55.08774692
2.5200,55.15139522
2.5250,55.21298258
2.5300,55.2722122
2.5350,55.3288854
2.5400,55.38309331
2.5450,55.43479097
2.5500,55.48386198
2.5550,55.53024174
2.5600,55.57378634
2.5650,55.61449461
2.5700,55.65215244
2.5750,55.68684987
2.5800,55.71847897
2.5850,55.74700648
2.5900,55.7723165
2.5950,55.79436497
2.6000,55.81280754
2.6050,55.8274342
2.6100,55.83826037
2.6150,55.84529576
2.6200,55.84858224
2.6250,55.84824229
2.6300,55.84456383
2.6350,55.83761756
2.6400,55.82742153
2.6450,55.81388973
2.6500,55.79687717
2.6550,55.77648367
2.6600,55.75282795
2.6650,55.72608416
2.6700,55.69620165
2.6750,55.66351333
2.6800,55.62813669
2.6850,55.59013277
2.6900,55.54956278
2.6950,55.50643446
2.7000,55.46045362
2.7050,55.41169024
2.7100,55.35988649
2.7150,55.30555838
2.7200,55.24845056
2.7250,55.18843127
2.7300,55.12577576
2.7350,55.06063158
2.7400,54.9928563
2.7450,54.92286721
2.7500,54.85066454
2.7550,54.77641021
2.7600,54.70031809
2.7650,54.62256192
2.7700,54.54302602
2.7750,54.46179967
2.7800,54.37881117
2.7850,54.29414478
2.7900,54.20794159
2.7950,54.12020356
2.8000,54.03100624
2.8050,53.94011615
2.8100,53.84777057
2.8150,53.75388505
2.8200,53.6581846
2.8250,53.56049495
2.8300,53.46104065
2.8350,53.35999967
2.8400,53.25738241
2.8450,53.15314178
2.8500,53.04725272
2.8550,52.93975054
2.8600,52.83074046
2.8650,52.72015599
2.8700,52.6080669
2.8750,52.49456241
2.8800,52.37966791
2.8850,52.26319888
2.8900,52.14531334
2.8950,52.02580136
2.9000,51.90470077
2.9050,51.7818916
2.9100,51.65752237
2.9150,51.5316242
2.9200,51.40436903
2.9250,51.27583232
2.9300,51.14568986
2.9350,51.01414073
2.9400,50.88119163
2.9450,50.74704484
2.9500,50.61187348
2.9550,50.47563523
2.9600,50.33842334
2.9650,50.20016663
2.9700,50.06088384
2.9750,49.92035071
2.9800,49.77845445
2.9850,49.63545113
2.9900,49.49134353
2.9950,49.34614297
3.0000,49.20003035
3.0050,49.0532539
3.0100,48.90583624
3.0150,48.75754174
3.0200,48.60859892
3.0250,48.45890657
3.0300,48.30838464
3.0350,48.15700992
3.0400,48.0050604
3.0450,47.85231531
3.0500,47.69900026
3.0550,47.54489597
3.0600,47.39003147
3.0650,47.23437537
3.0700,47.07808775
3.0750,46.92124709
3.0800,46.76397871
3.0850,46.60629088
3.0900,46.44826839
3.0950,46.28995811
3.1000,46.13120097
3.1050,45.97215875
3.1100,45.81263931
3.1150,45.65278912
3.1200,45.49261973
3.1250,45.33230855
3.1300,45.17170016
3.1350,45.01088966
3.1400,44.84983333
3.1450,44.68876374
3.1500,44.52758003
3.1550,44.36650923
3.1600,44.20564921
3.1650,44.04527649
3.1700,43.88532979
3.1750,43.72609213
3.1800,43.56754837
3.1850,43.41000262
3.1900,43.25364003
3.1950,43.09852921
3.2000,42.94484453
3.2050,42.79284083
3.2100,42.64238393
3.2150,42.49369813
3.2200,42.34674539
3.2250,42.20163665
3.2300,42.05857702
3.2350,41.91746879
3.2400,41.77824502
3.2450,41.64096408
3.2500,41.50549311
3.2550,41.37192515
3.2600,41.2401684
3.2650,41.11030144
3.2700,40.98228739
3.2750,40.8561649
3.2800,40.73194325
3.2850,40.60944749
3.2900,40.48872782
3.2950,40.36968327
3.3000,40.25229961
3.3050,40.13637002
3.3100,40.02182233
3.3150,39.90871493
3.3200,39.79682895
3.3250,39.68634684
3.3300,39.57692044
3.3350,39.46836228
3.3400,39.36042996
3.3450,39.25290423
3.3500,39.1456965
3.3550,39.03883619
3.3600,38.93217431
3.3650,38.82570422
3.3700,38.7193194
3.3750,38.61286538
3.3800,38.50628077
3.3850,38.39950041
3.3900,38.29239517
3.3950,38.18482528
3.4000,38.07702441
3.4050,37.96884836
3.4100,37.86033541
3.4150,37.75128859
3.4200,37.64191657
3.4250,37.53213651
3.4300,37.42208657
3.4350,37.31184759
3.4400,37.20138045
3.4450,37.09056491
3.4500,36.97958505
3.4550,36.86851376
3.4600,36.75741321
3.4650,36.64617462
3.4700,36.53503429
3.4750,36.42399984
3.4800,36.31302272
3.4850,36.20221109
3.4900,36.09151096
3.4950,35.98110192
3.5000,35.87092594
3.5050,35.76105215
3.5100,35.65169289
3.5150,35.54277734
3.5200,35.43437521
3.5250,35.32650573
3.5300,35.21899185
3.5350,35.11200531
3.5400,35.00543581
3.5450,34.89940417
3.5500,34.79403147
3.5550,34.68928888
3.5600,34.58521065
3.5650,34.48158348
3.5700,34.37842432
3.5750,34.27570067
3.5800,34.17345782
3.5850,34.07178063
3.5900,33.97054831
3.5950,33.86987365
3.6000,33.76957366
3.6050,33.66973112
3.6100,33.57034558
3.6150,33.47126938
3.6200,33.37247534
3.6250,33.27369541
3.6300,33.17491429
3.6350,33.07603049
3.6400,32.97696661
3.6450,32.87751794
3.6500,32.77766663
3.6550,32.67712523
3.6600,32.57588276
3.6650,32.4736523
3.6700,32.37029695
3.6750,32.26580873
3.6800,32.16007193
3.6850,32.05291474
3.6900,31.94422415
3.6950,31.83407329
3.7000,31.72226998
3.7050,31.60859414
3.7100,31.49298441
3.7150,31.37531834
3.7200,31.25550849
3.7250,31.13359562
3.7300,31.00953953
3.7350,30.88293151
3.7400,30.75389002
3.7450,30.62239732
3.7500,30.48848711
3.7550,30.35195609
3.7600,30.21300192
3.7650,30.07166924
3.7700,29.92797367
3.7750,29.78192506
3.7800,29.6337845
3.7850,29.48372851
3.7900,29.33184994
3.7950,29.17815577
3.8000,29.02294658
3.8050,28.86640826
3.8100,28.70881953
3.8150,28.55022979
3.8200,28.39099532
3.8250,28.23130574
3.8300,28.0715182
3.8350,27.91173281
3.8400,27.75224272
3.8450,27.59317228
3.8500,27.43475596
3.8550,27.27717619
3.8600,27.12067771
3.8650,26.96558989
3.8700,26.81213667
3.8750,26.66047676
3.8800,26.5108953
3.8850,26.36329838
3.8900,26.21809379
3.8950,26.07512269
3.9000,25.93474369
3.9050,25.79688807
3.9100,25.66154097
3.9150,25.52890654
3.9200,25.39882941
3.9250,25.27141673
3.9300,25.14672445
3.9350,25.02469945
3.9400,24.90525855
3.9450,24.78859592
3.9500,24.67453411
3.9550,24.56322185
3.9600,24.45466934
3.9650,24.34884171
3.9700,24.2459542
3.9750,24.14583936
3.9800,24.04861312
3.9850,23.95435088
3.9900,23.86299582
3.9950,23.77444648
4.0000,23.688698
4.0050,23.60600003
4.0100,23.52611765
4.0150,23.44914769
4.0200,23.37502067
4.0250,23.30370567
4.0300,23.23504119
4.0350,23.16917579
4.0400,23.10610071
4.0450,23.04578836
4.0500,22.98814734
4.0550,22.93316038
4.0600,22.88071837
4.0650,22.83081756
4.0700,22.78338939
4.0750,22.73838011
4.0800,22.69585821
4.0850,22.65565307
4.0900,22.61772763
4.0950,22.58213013
4.1000,22.54884948
4.1050,22.5178958
4.1100,22.48895569
4.1150,22.46223023
4.1200,22.43770843
4.1250,22.41531958
4.1300,22.3949893
4.1350,22.37664971
4.1400,22.36032741
4.1450,22.34606339
4.1500,22.33373784
4.1550,22.3232239
4.1600,22.31437477
4.1650,22.30711386
4.1700,22.30147339
4.1750,22.29736831
4.1800,22.29463532
4.1850,22.29335702
4.1900,22.29335014
4.1950,22.29461067
4.2000,22.29720732
4.2050,22.30101895
4.2100,22.30607425
4.2150,22.31221231
4.2200,22.31946432
4.2250,22.32770154
4.2300,22.33693881
4.2350,22.3470884
4.2400,22.35813226
4.2450,22.37003205
4.2500,22.38257237
4.2550,22.3958181
4.2600,22.40965597
4.2650,22.4240809
4.2700,22.43894408
4.2750,22.45416437
4.2800,22.46979168
4.2850,22.48574477
4.2900,22.50206013
4.2950,22.51883932
4.3000,22.53597503
4.3050,22.55324363
4.3100,22.57083179
4.3150,22.58879701
4.3200,22.60693855
4.3250,22.6252027
4.3300,22.64381604
4.3350,22.66266686
4.3400,22.68175565
4.3450,22.70095526
4.3500,22.72037561
4.3550,22.73999899
4.3600,22.75993939
4.3650,22.78016682
4.3700,22.80061052
4.3750,22.82144447
4.3800,22.84241745
4.3850,22.8637191
4.3900,22.88521929
4.3950,22.90706023
4.4000,22.92911319
4.4050,22.95139314
4.4100,22.9740911
4.4150,22.99702903
4.4200,23.02014615
4.4250,23.04339095
4.4300,23.06683947
4.4350,23.09034656
4.4400,23.11397301
4.4450,23.1376214
4.4500,23.16127478
4.4550,23.1849054
4.4600,23.20866099
4.4650,23.23245299
4.4700,23.25625802
4.4750,23.28014923
4.4800,23.30401725
4.4850,23.3279445
4.4900,23.35183131
4.4950,23.37586532
4.5000,23.39982311
4.5050,23.42393079
4.5100,23.44797306
4.5150,23.47200674
4.5200,23.49614451
4.5250,23.52032428
4.5300,23.54443275
4.5350,23.56852873
4.5400,23.59253779
4.5450,23.61636431
4.5500,23.64019401
4.5550,23.66394438
4.5600,23.68764906
4.5650,23.71124338
4.5700,23.73483603
4.5750,23.7585299
4.5800,23.7823069
4.5850,23.80620364
4.5900,23.83030692
4.5950,23.85449271
4.6000,23.878935
4.6050,23.90381808
4.6100,23.92899136
4.6150,23.9543044
4.6200,23.98003579
4.6250,24.00612597
4.6300,24.03257309
4.6350,24.05935107
4.6400,24.08651291
4.6450,24.11412495
4.6500,24.14222484
4.6550,24.17067917
4.6600,24.19935813
4.6650,24.22807644
4.6700,24.25703469
4.6750,24.2859901
4.6800,24.31509006
4.6850,24.34405266
4.6900,24.3729874
4.6950,24.40184663
4.7000,24.4306193
4.7050,24.45920843
4.7100,24.48752682
4.7150,24.5157523
4.7200,24.54382413
4.7250,24.57174611
4.7300,24.59932185
4.7350,24.62687812
4.7400,24.65415414
4.7450,24.68128687
4.7500,24.70812894
4.7550,24.73490602
4.7600,24.76131626
4.7650,24.78764372
4.7700,24.81371464
4.7750,24.83960314
4.7800,24.86533306
4.7850,24.89094216
4.7900,24.91635088
4.7950,24.94160511
4.8000,24.96671091
4.8050,24.99164777
4.8100,25.01654485
4.8150,25.04139524
4.8200,25.06611805
4.8250,25.09085731
4.8300,25.1157395
4.8350,25.14069336
4.8400,25.16591189
4.8450,25.19148986
4.8500,25.21751938
4.8550,25.24396736
4.8600,25.27089482
4.8650,25.29858318
4.8700,25.32677494
4.8750,25.35562538
4.8800,25.38496369
4.8850,25.41496817
4.8900,25.44554202
4.8950,25.47676398
4.9000,25.50861724
4.9050,25.54111911
4.9100,25.57423067
4.9150,25.60817577
4.9200,25.64284569
4.9250,25.67816991
4.9300,25.7142591
4.9350,25.75101797
4.9400,25.78835076
4.9450,25.82632086
4.9500,25.86495711
4.9550,25.9043961
4.9600,25.94459286
4.9650,25.98583964
4.9700,26.02810035
4.9750,26.07147003
4.9800,26.11584075
4.9850,26.16139619
4.9900,26.20817695
4.9950,26.25618726
5.0000,26.30555382
5.0050,26.35631038
5.0100,26.40848594
5.0150,26.46203975
5.0200,26.51722439
5.0250,26.57399327
5.0300,26.63268506
5.0350,26.69327687
5.0400,26.75598608
5.0450,26.82070071
5.0500,26.88765559
5.0550,26.95683544
5.0600,27.02853574
5.0650,27.10270674
5.0700,27.17944407
5.0750,27.25885094
5.0800,27.34105301
5.0850,27.42605241
5.0900,27.51406423
5.0950,27.60513647
5.1000,27.69944113
5.1050,27.79709942
5.1100,27.89810841
5.1150,28.00245071
5.1200,28.11028927
5.1250,28.22162283
5.1300,28.33646996
5.1350,28.4548269
5.1400,28.57658134
5.1450,28.70169097
5.1500,28.8299101
5.1550,28.96146106
5.1600,29.09617845
5.1650,29.23387353
5.1700,29.37481099
5.1750,29.51888158
5.1800,29.66608042
5.1850,29.81638393
5.1900,29.96975979
5.1950,30.1261131
5.2000,30.28547953
5.2050,30.44759502
5.2100,30.61250782
5.2150,30.78005541
5.2200,30.95002186
5.2250,31.12243327
5.2300,31.29703393
5.2350,31.47392872
5.2400,31.65305432
5.2450,31.83435028
5.2500,32.01768911
5.2550,32.20296382
5.2600,32.39004367
5.2650,32.57871847
5.2700,32.76896256
5.2750,32.96045893
5.2800,33.15348609
5.2850,33.34794253
5.2900,33.54373602
5.2950,33.74069261
5.3000,33.93879978
5.3050,34.13794652
5.3100,34.33799834
5.3150,34.53879905
5.3200,34.74000352
5.3250,34.94190341
5.3300,35.14413305
5.3350,35.34669473
5.3400,35.54960445
5.3450,35.75286973
5.3500,35.95641649
5.3550,36.16003795
5.3600,36.3635154
5.3650,36.56690484
5.3700,36.77002702
5.3750,36.97268038
5.3800,37.17483155
5.3850,37.37626804
5.3900,37.57701081
5.3950,37.77698761
5.4000,37.97613229
5.4050,38.17424321
5.4100,38.37142981
5.4150,38.56775983
5.4200,38.76309263
5.4250,38.95728556
5.4300,39.15026188
5.4350,39.34214799
5.4400,39.53287897
5.4450,39.72257354
5.4500,39.91134185
5.4550,40.0989631
5.4600,40.28548343
5.4650,40.47079461
5.4700,40.65491334
5.4750,40.83793005
5.4800,41.01985373
5.4850,41.20056836
5.4900,41.3800187
5.4950,41.55806969
5.5000,41.73454511
5.5050,41.90961303
5.5100,42.08318214
5.5150,42.25521949
5.5200,42.42591506
5.5250,42.59535957
5.5300,42.76364879
5.5350,42.93078781
5.5400,43.09695699
5.5450,43.26215471
5.5500,43.42636128
5.5550,43.58976037
5.5600,43.75245067
5.5650,43.91444303
5.5700,44.07578752
5.5750,44.23674059
5.5800,44.39727793
5.5850,44.55732021
5.5900,44.71705379
5.5950,44.87648642
5.6000,45.03574151
5.6050,45.19483127
5.6100,45.35401776
5.6150,45.51326637
5.6200,45.67257289
5.6250,45.83173717
5.6300,45.99080997
5.6350,46.14983521
5.6400,46.30865943
5.6450,46.46739521
5.6500,46.62607374
5.6550,46.7849209
5.6600,46.9440857
5.6650,47.10344661
5.6700,47.26313578
5.6750,47.42312054
5.6800,47.58315646
5.6850,47.74320708
5.6900,47.90323914
5.6950,48.06280115
5.7000,48.22151745
5.7050,48.37932887
5.7100,48.53611421
5.7150,48.69174696
5.7200,48.84629922
5.7250,48.99978242
5.7300,49.15234036
5.7350,49.30380631
5.7400,49.45419168
5.7450,49.6032345
5.7500,49.75103273
5.7550,49.89769971
5.7600,50.04318926
5.7650,50.18763713
5.7700,50.33068681
5.7750,50.47205562
5.7800,50.61167831
5.7850,50.74959093
5.7900,50.88586162
5.7950,51.02055435
5.8000,51.15362633
5.8050,51.28482478
5.8100,51.4140996
5.8150,51.54151042
5.8200,51.66687308
5.8250,51.78988027
5.8300,51.91024301
5.8350,52.02779974
5.8400,52.14253858
5.8450,52.25471348
5.8500,52.36436402
5.8550,52.47150969
5.8600,52.57640004
5.8650,52.67921363
5.8700,52.77999094
5.8750,52.87873026
5.8800,52.975399
5.8850,53.06969527
5.8900,53.16139803
5.8950,53.25058766
5.9000,53.33729774
5.9050,53.42151376
5.9100,53.50313695
5.9150,53.58254177
5.9200,53.65984368
5.9250,53.73514391
5.9300,53.80873207
5.9350,53.88032415
5.9400,53.95027202
5.9450,54.01849128
5.9500,54.08509731
5.9550,54.15007059
5.9600,54.21335166
5.9650,54.27489235
5.9700,54.3347988
5.9750,54.39323475
5.9800,54.45050951
5.9850,54.506705
5.9900,54.56181223
5.9950,54.61650747
6.0000,54.67093696
6.0050,54.72519073
6.0100,54.77914553
6.0150,54.83248489
6.0200,54.88504014
6.0250,54.93662029
6.0300,54.98705938
6.0350,55.03645493
6.0400,55.08483683
6.0450,55.13222748
6.0500,55.17838197
6.0550,55.22308775
6.0600,55.26646315
6.0650,55.30862765
6.0700,55.34990764
6.0750,55.39038325
6.0800,55.42970843
6.0850,55.46751662
6.0900,55.50389874
6.0950,55.53866634
6.1000,55.57178788
6.1050,55.602939
6.1100,55.63186765
6.1150,55.6582734
6.1200,55.68219465
6.1250,55.70415882
6.1300,55.72415423
6.1350,55.74249027
6.1400,55.7589633
6.1450,55.77340826
6.1500,55.78597415
6.1550,55.79663685
6.1600,55.80533941
6.1650,55.8119635
6.1700,55.81656784
6.1750,55.81916204
6.1800,55.81968057
6.1850,55.81834772
6.1900,55.81514294
6.1950,55.80984674
6.2000,55.80200248
6.2050,55.79129967
6.2100,55.77773463
6.2150,55.76110952
6.2200,55.7414078
6.2250,55.71855447
6.2300,55.69219697
6.2350,55.66244231
6.2400,55.62895415
6.2450,55.59165156
6.2500,55.55056461
6.2550,55.50531156
6.2600,55.45637227
6.2650,55.4038586
6.2700,55.34800276
6.2750,55.28898142
6.2800,55.22708741
6.2850,55.16272303
6.2900,55.09604224
6.2950,55.0268835
6.3000,54.95566406
6.3050,54.88256813
6.3100,54.80752647
6.3150,54.73052097
6.3200,54.65174888
6.3250,54.57151349
6.3300,54.48981499
6.3350,54.40693159
6.3400,54.32288122
6.3450,54.23773499
6.3500,54.15188084
6.3550,54.06566533
6.3600,53.97898556
6.3650,53.89170785
6.3700,53.80372186
6.3750,53.71544012
6.3800,53.6272746
6.3850,53.53951408
6.3900,53.45220239
6.3950,53.36541031
6.4000,53.27905904
6.4050,53.19367162
6.4100,53.10960701
6.4150,53.02680348
6.4200,52.9450924
6.4250,52.86411905
6.4300,52.78368523
6.4350,52.70344662
6.4400,52.62307514
6.4450,52.54237424
6.4500,52.46100441
6.4550,52.37875809
6.4600,52.29520015
6.4650,52.21023137
6.4700,52.12343073
6.4750,52.03448915
6.4800,51.94310502
6.4850,51.84915827
6.4900,51.75249494
6.4950,51.65293827
6.5000,51.55052121
6.5050,51.44558105
6.5100,51.33772851
6.5150,51.22712405
6.5200,51.11386351
6.5250,50.99775185
6.5300,50.8789764
6.5350,50.7574278
6.5400,50.63341005
6.5450,50.50678688
6.5500,50.37755562
6.5550,50.24596084
6.5600,50.11176651
6.5650,49.97519808
6.5700,49.83617512
6.5750,49.69470678
6.5800,49.55087624
6.5850,49.40449272
6.5900,49.2557345
6.5950,49.10460008
6.6000,48.9509202
6.6050,48.79488281
6.6100,48.6367121
6.6150,48.47679827
6.6200,48.31504633
6.6250,48.15135998
6.6300,47.98600184
6.6350,47.81880265
6.6400,47.65014073
6.6450,47.48009906
6.6500,47.30854717
6.6550,47.1354968
6.6600,46.96129372
6.6650,46.78585935
6.6700,46.60929614
6.6750,46.4314827
6.6800,46.25258327
6.6850,46.07259189
6.6900,45.89126606
6.6950,45.70860316
6.7000,45.52487472
6.7050,45.33979654
6.7100,45.15320252
6.7150,44.96522969
6.7200,44.77578578
6.7250,44.58481216
6.7300,44.39250963
6.7350,44.19883997
6.7400,44.00395522
6.7450,43.80775004
6.7500,43.61022778
6.7550,43.41132804
6.7600,43.21110797
6.7650,43.00964054
6.7700,42.80714073
6.7750,42.60362226
6.7800,42.39917936
6.7850,42.19400859
6.7900,41.9881681
6.7950,41.78188541
6.8000,41.5750445
6.8050,41.36738959
6.8100,41.15902504
6.8150,40.94992147
6.8200,40.73987074
6.8250,40.52892301
6.8300,40.31706932
6.8350,40.10435364
6.8400,39.89057595
6.8450,39.67601544
6.8500,39.46068233
6.8550,39.24466323
6.8600,39.02803028
6.8650,38.8107438
6.8700,38.59300379
6.8750,38.37484497
6.8800,38.1562309
6.8850,37.93738453
6.8900,37.7183492
6.8950,37.49921745
6.9000,37.28011134
6.9050,37.06090559
6.9100,36.84168992
6.9150,36.62245227
6.9200,36.40326425
6.9250,36.18409313
6.9300,35.96493258
6.9350,35.74563224
6.9400,35.52615904
6.9450,35.30647542
6.9500,35.08668378
6.9550,34.86672798
6.9600,34.64653637
6.9650,34.4262898
6.9700,34.20610336
6.9750,33.98613922
6.9800,33.76638613
6.9850,33.5470728
6.9900,33.32836956
6.9950,33.11050828
7.0000,32.89339972
7.0050,32.67735345
7.0100,32.46257104
7.0150,32.24920706
7.0200,32.03728326
7.0250,31.82685749
7.0300,31.6179952
7.0350,31.41075577
7.0400,31.20503058
7.0450,31.00093692
7.0500,30.79851461
7.0550,30.59755821
7.0600,30.39817831
7.0650,30.20023235
7.0700,30.00360986
7.0750,29.80829797
7.0800,29.61445467
7.0850,29.42166334
7.0900,29.2300434
7.0950,29.03958686
7.1000,28.85038667
7.1050,28.66227347
7.1100,28.47536103
7.1150,28.28972228
7.1200,28.1054277
7.1250,27.92271308
7.1300,27.74148846
7.1350,27.56189458
7.1400,27.38404421
7.1450,27.20783684
7.1500,27.03322319
7.1550,26.86013161
7.1600,26.68874968
7.1650,26.51892492
7.1700,26.35075723
7.1750,26.1840332
7.1800,26.01880685
7.1850,25.85500625
7.1900,25.69249263
7.1950,25.53127115
7.2000,25.37114224
7.2050,25.21228453
7.2100,25.05453745
7.2150,24.89798527
7.2200,24.74254751
7.2250,24.58826151
7.2300,24.43490635
7.2350,24.28257552
7.2400,24.13112212
7.2450,23.98071386
7.2500,23.83122472
7.2550,23.68265224
7.2600,23.53489885
7.2650,23.38781093
7.2700,23.24125643
7.2750,23.09514416
7.2800,22.94952472
7.2850,22.8041477
7.2900,22.65900393
7.2950,22.51408843
7.3000,22.36938319
7.3050,22.2247149
7.3100,22.08003129
7.3150,21.93544281
7.3200,21.79100178
7.3250,21.64679653
7.3300,21.5026538
7.3350,21.35860758
7.3400,21.21481392
7.3450,21.07128109
7.3500,20.92802397
7.3550,20.78516719
7.3600,20.64267947
7.3650,20.50046077
7.3700,20.35845798
7.3750,20.21681388
7.3800,20.07537209
7.3850,19.93430057
7.3900,19.79361332
7.3950,19.65309278
7.4000,19.51302635
7.4050,19.37351424
7.4100,19.23439246
7.4150,19.09574805
7.4200,18.95745977
7.4250,18.81947719
7.4300,18.68186802
7.4350,18.54462117
7.4400,18.40760559
7.4450,18.2709186
7.4500,18.13477322
7.4550,17.99915006
7.4600,17.86401446
7.4650,17.72948817
7.4700,17.59549989
7.4750,17.46234335
7.4800,17.32970971
7.4850,17.19786602
7.4900,17.06681759
7.4950,16.93655028
7.5000,16.80726648
7.5050,16.67887375
7.5100,16.55159032
7.5150,16.42523427
7.5200,16.29988925
7.5250,16.17574121
7.5300,16.0526704
7.5350,15.9309163
7.5400,15.81044223
7.5450,15.69117654
7.5500,15.57327796
7.5550,15.4567237
7.5600,15.34157494
7.5650,15.22797629
7.5700,15.11612374
7.5750,15.00599851
7.5800,14.89757688
7.5850,14.79091439
7.5900,14.68618267
7.5950,14.58332601
7.6000,14.48232606
7.6050,14.38328608
7.6100,14.28638609
7.6150,14.19133816
7.6200,14.09823538
7.6250,14.00712109
7.6300,13.91790844
7.6350,13.8307459
7.6400,13.74561876
7.6450,13.66244724
7.6500,13.58115736
7.6550,13.50182915
7.6600,13.42427728
7.6650,13.34868826
7.6700,13.27517193
7.6750,13.20357543
7.6800,13.1339313
7.6850,13.06643998
7.6900,13.00090605
7.6950,12.93751766
7.7000,12.87593352
7.7050,12.81629936
7.7100,12.75870999
7.7150,12.70321265
7.7200,12.64980314
7.7250,12.59856613
7.7300,12.54961248
7.7350,12.50287673
7.7400,12.45845785
7.7450,12.41638709
7.7500,12.3766148
7.7550,12.33931561
7.7600,12.30463885
7.7650,12.27260419
7.7700,12.24323193
7.7750,12.21665014
7.7800,12.1930649
7.7850,12.17241173
7.7900,12.15480933
7.7950,12.14044916
7.8000,12.12928439
7.8050,12.12142277
7.8100,12.11696954
7.8150,12.11607523
7.8200,12.11878295
7.8250,12.12504203
7.8300,12.13506822
7.8350,12.14864265
7.8400,12.16595166
7.8450,12.18707159
7.8500,12.21200318
7.8550,12.24085968
7.8600,12.27364719
7.8650,12.31037363
7.8700,12.35097306
7.8750,12.39561845
7.8800,12.4442497
7.8850,12.49713768
7.8900,12.5541545
7.8950,12.61541777
7.9000,12.6811003
7.9050,12.75122285
7.9100,12.82563541
7.9150,12.90467439
7.9200,12.98826319
7.9250,13.07643385
7.9300,13.16921501
7.9350,13.26648972
7.9400,13.36831316
7.9450,13.47469184
7.9500,13.58567392
7.9550,13.701235
7.9600,13.82150736
7.9650,13.94636524
7.9700,14.07568252
7.9750,14.20940474
7.9800,14.34747105
7.9850,14.4897065
7.9900,14.63605353
7.9950,14.78639355
8.0000,14.94090709
8.0050,15.09940728
8.0100,15.26186937
8.0150,15.4279967
8.0200,15.59795975
8.0250,15.7715409
8.0300,15.94866399
8.0350,16.12932735
8.0400,16.31352258
8.0450,16.50117372
8.0500,16.69222391
8.0550,16.88656533
8.0600,17.08407788
8.0650,17.28480716
8.0700,17.48871456
8.0750,17.69563909
8.0800,17.9057077
8.0850,18.11877069
8.0900,18.33483309
8.0950,18.55399021
8.1000,18.77612597
8.1050,19.00115054
8.1100,19.22896469
8.1150,19.45946223
8.1200,19.69274636
8.1250,19.92874188
8.1300,20.16736835
8.1350,20.40858558
8.1400,20.6522833
8.1450,20.89829498
8.1500,21.1465886
8.1550,21.39703727
8.1600,21.6496475
8.1650,21.90443652
8.1700,22.16115817
8.1750,22.41972336
8.1800,22.67990384
8.1850,22.94159634
8.1900,23.2047932
8.1950,23.46940538
8.2000,23.73520671
8.2050,24.002159
8.2100,24.27015286
8.2150,24.53887395
8.2200,24.80849857
8.2250,25.07874934
8.2300,25.3496639
8.2350,25.62116231
8.2400,25.89321646
8.2450,26.1655741
8.2500,26.43816806
8.2550,26.71096086
8.2600,26.98378222
8.2650,27.2566706
8.2700,27.5293696
8.2750,27.80190394
8.2800,28.07434759
8.2850,28.34654586
8.2900,28.6185321
8.2950,28.89018916
8.3000,29.16153213
8.3050,29.43248593
8.3100,29.70288671
8.3150,29.9728276
8.3200,30.24215794
8.3250,30.51107653
8.3300,30.77941653
8.3350,31.04718047
8.3400,31.31435813
8.3450,31.58089115
8.3500,31.84660538
8.3550,32.11165001
8.3600,32.37608084
8.3650,32.63966006
8.3700,32.90238861
8.3750,33.16420723
8.3800,33.42504624
8.3850,33.68504735
8.3900,33.94418055
8.3950,34.20202728
8.4000,34.45877252
8.4050,34.7145019
8.4100,34.9689457
8.4150,35.22212036
8.4200,35.47385545
8.4250,35.72398303
8.4300,35.97246508
8.4350,36.21922177
8.4400,36.46418858
8.4450,36.70737531
8.4500,36.94874869
8.4550,37.1884204
8.4600,37.42614597
8.4650,37.66185939
8.4700,37.89573236
8.4750,38.1275265
8.4800,38.35730998
8.4850,38.58489142
8.4900,38.81038083
8.4950,39.03352459
8.5000,39.25446548
8.5050,39.47307171
8.5100,39.68942008
8.5150,39.90351908
8.5200,40.1152486
8.5250,40.32458087
8.5300,40.53143136
8.5350,40.73579494
8.5400,40.9375782
8.5450,41.13695032
8.5500,41.33387454
8.5550,41.52831311
8.5600,41.72042351
8.5650,41.91003341
8.5700,42.09744394
8.5750,42.28258212
8.5800,42.46549746
8.5850,42.64622146
8.5900,42.82486259
8.5950,43.00167549
8.6000,43.17638152
8.6050,43.34911557
8.6100,43.51986405
8.6150,43.68866861
8.6200,43.8557388
8.6250,44.02086394
8.6300,44.1842666
8.6350,44.34609452
8.6400,44.50635783
8.6450,44.66520176
8.6500,44.82289341
8.6550,44.97936104
8.6600,45.13449345
8.6650,45.28842834
8.6700,45.44119193
8.6750,45.59272728
8.6800,45.74308408
8.6850,45.89221058
8.6900,46.0399896
8.6950,46.18685425
8.7000,46.33268735
8.7050,46.4772525
8.7100,46.62084446
8.7150,46.7634088
8.7200,46.90509556
8.7250,47.04593275
8.7300,47.18596018
8.7350,47.32513326
8.7400,47.46358515
8.7450,47.60135686
8.7500,47.73837074
8.7550,47.87442568
8.7600,48.0098573
8.7650,48.14445224
8.7700,48.27836138
8.7750,48.41165333
8.7800,48.54437737
8.7850,48.67660632
8.7900,48.80824423
8.7950,48.93937626
8.8000,49.06981514
8.8050,49.19951022
8.8100,49.32840851
8.8150,49.45652966
8.8200,49.58369016
8.8250,49.70986891
8.8300,49.83525025
8.8350,49.95960044
8.8400,50.08294392
8.8450,50.20521558
8.8500,50.32636867
8.8550,50.44635631
8.8600,50.56494964
8.8650,50.68214852
8.8700,50.79790907
8.8750,50.91212637
8.8800,51.02473346
8.8850,51.13609136
8.8900,51.24626796
8.8950,51.35510266
8.9000,51.46283404
8.9050,51.5691303
8.9100,51.67405667
8.9150,51.7776601
8.9200,51.87959835
8.9250,51.97986723
8.9300,52.07842085
8.9350,52.17515608
8.9400,52.26988771
8.9450,52.36256383
8.9500,52.45312334
8.9550,52.54161548
8.9600,52.62797404
8.9650,52.7123088
8.9700,52.79457748
8.9750,52.87481768
8.9800,52.9530821
8.9850,53.02932518
8.9900,53.10369142
8.9950,53.17581502
9.0000,53.24578103
9.0050,53.31366924
9.0100,53.37933773
9.0150,53.44303939
9.0200,53.50446228
9.0250,53.56378497
9.0300,53.62108102
9.0350,53.67635201
9.0400,53.72941692
9.0450,53.78034005
9.0500,53.82893856
9.0550,53.8752795
9.0600,53.91947127
9.0650,53.96179559
9.0700,54.00230561
9.0750,54.04100324
9.0800,54.07809805
9.0850,54.11350334
9.0900,54.14741041
9.0950,54.17967275
9.1000,54.21016443
9.1050,54.23897195
9.1100,54.26592197
9.1150,54.29115515
9.1200,54.3145739
9.1250,54.33662264
9.1300,54.35708928
9.1350,54.37619432
9.1400,54.39371711
9.1450,54.40985715
9.1500,54.42459399
9.1550,54.43817785
9.1600,54.45055741
9.1650,54.46175912
9.1700,54.47162174
9.1750,54.48020325
9.1800,54.48732124
9.1850,54.49282141
9.1900,54.49641863
9.1950,54.49826287
9.2000,54.49811845
9.2050,54.49635316
9.2100,54.49305759
9.2150,54.48817914
9.2200,54.48190835
9.2250,54.47405597
9.2300,54.46462273
9.2350,54.45329403
9.2400,54.44049735
9.2450,54.42610976
9.2500,54.41010459
9.2550,54.39244123
9.2600,54.37315833
9.2650,54.35207491
9.2700,54.32920983
9.2750,54.30465714
9.2800,54.27838891
9.2850,54.25055886
9.2900,54.22093313
9.2950,54.18960026
9.3000,54.1563712
9.3050,54.12137039
9.3100,54.08459976
9.3150,54.04593431
9.3200,54.00555654
9.3250,53.96341844
9.3300,53.91959425
9.3350,53.87410696
9.3400,53.82713103
9.3450,53.77828981
9.3500,53.72790426
9.3550,53.6759212
9.3600,53.62236771
9.3650,53.56728513
9.3700,53.51055681
9.3750,53.4522385
9.3800,53.39229602
9.3850,53.33105353
9.3900,53.26813058
9.3950,53.20392952
9.4000,53.13846223
9.4050,53.07167688
9.4100,53.00359171
9.4150,52.93397846
9.4200,52.86321401
9.4250,52.79096993
9.4300,52.7172217
9.4350,52.64196819
9.4400,52.56563973
9.4450,52.48787392
9.4500,52.4088537
9.4550,52.3285627
9.4600,52.24685552
9.4650,52.16386368
9.4700,52.07941528
9.4750,51.99363132
9.4800,51.9065536
9.4850,51.81799322
9.4900,51.72827905
9.4950,51.6371476
9.5000,51.54503693
9.5050,51.45191618
9.5100,51.35798081
9.5150,51.26317842
9.5200,51.16759676
9.5250,51.07138637
9.5300,50.97471286
9.5350,50.87793183
9.5400,50.780784
9.5450,50.68339616
9.5500,50.58565085
9.5550,50.4876195
9.5600,50.38927838
9.5650,50.29087565
9.5700,50.1925311
9.5750,50.09402044
9.5800,49.99545307
9.5850,49.89653759
9.5900,49.79739838
9.5950,49.69790092
9.6000,49.59786668
9.6050,49.4970627
9.6100,49.39522911
9.6150,49.2922496
9.6200,49.18804024
9.6250,49.08248441
9.6300,48.9754003
9.6350,48.86688704
9.6400,48.75685044
9.6450,48.64565497
9.6500,48.53325974
9.6550,48.41967142
9.6600,48.30487669
9.6650,48.18883183
9.6700,48.0717294
9.6750,47.95347946
9.6800,47.83413966
9.6850,47.7135489
9.6900,47.59213177
9.6950,47.46969859
9.7000,47.34641377
9.7050,47.22240274
9.7100,47.09764941
9.7150,46.97248778
9.7200,46.84652343
9.7250,46.72000007
9.7300,46.59297011
9.7350,46.4650094
9.7400,46.33612509
9.7450,46.20639386
9.7500,46.07568541
9.7550,45.94388155
9.7600,45.81127004
9.7650,45.67785673
9.7700,45.54384556
9.7750,45.40913587
9.7800,45.27377208
9.7850,45.13801832
9.7900,45.00149907
9.7950,44.86456406
9.8000,44.72712769
9.8050,44.5892563
9.8100,44.45077688
9.8150,44.31177317
9.8200,44.17226384
9.8250,44.03258184
9.8300,43.89233547
9.8350,43.75176181
9.8400,43.6108272
9.8450,43.46959845
9.8500,43.32844772
9.8550,43.1874659
9.8600,43.04673743
9.8650,42.90638365
9.8700,42.76644815
9.8750,42.62718803
9.8800,42.48844707
9.8850,42.35027908
9.8900,42.21277525
9.8950,42.07611365
9.9000,41.94039762
9.9050,41.80573964
9.9100,41.67236127
9.9150,41.54021852
9.9200,41.4095556
9.9250,41.28013845
9.9300,41.15216973
9.9350,41.02554005
9.9400,40.9005612
9.9450,40.77701882
9.9500,40.65504619
9.9550,40.53472329
9.9600,40.41605572
9.9650,40.29909578
9.9700,40.18378553
9.9750,40.07033745
9.9800,39.95852453
9.9850,39.84863881
9.9900,39.74041111
9.9950,39.63392985
10.0000,39.5290335
10.0050,39.42579366
10.0100,39.32424029
10.0150,39.22423219
10.0200,39.12575656
10.0250,39.02858268
10.0300,38.93262139
10.0350,38.83795475
10.0400,38.74417584
10.0450,38.65123995
10.0500,38.55905269
10.0550,38.46761622
10.0600,38.37663802
10.0650,38.28594042
10.0700,38.19542651
10.0750,38.10501149
10.0800,38.01460158
10.0850,37.92390211
10.0900,37.83307094
10.0950,37.74180772
10.1000,37.65012574
10.1050,37.55786759
10.1100,37.46514916
10.1150,37.37173756
10.1200,37.27771784
10.1250,37.18291048
10.1300,37.08757263
10.1350,36.99148427
10.1400,36.89474082
10.1450,36.79731012
10.1500,36.6990367
10.1550,36.6000711
10.1600,36.50055986
10.1650,36.40060659
10.1700,36.30021387
10.1750,36.19952972
10.1800,36.0984909
10.1850,35.99748436
10.1900,35.89647696
10.1950,35.7955444
10.2000,35.69477484
10.2050,35.5944995
10.2100,35.49458339
10.2150,35.39525124
10.2200,35.29651983
10.2250,35.19852473
10.2300,35.10143956
10.2350,35.00545672
10.2400,34.91039048
10.2450,34.81666379
10.2500,34.72418808
10.2550,34.63306995
10.2600,34.54336914
10.2650,34.45519835
10.2700,34.36860916
10.2750,34.28349939
10.2800,34.20018905
10.2850,34.11854084
10.2900,34.0385449
10.2950,33.96034702
10.3000,33.88394456
10.3050,33.80922133
10.3100,33.73616624
10.3150,33.66463152
10.3200,33.59466966
10.3250,33.52618402
10.3300,33.45925132
10.3350,33.39373707
10.3400,33.32979874
10.3450,33.26733466
10.3500,33.20637129
10.3550,33.14677539
10.3600,33.08847226
10.3650,33.03162565
10.3700,32.97611948
10.3750,32.92182937
10.3800,32.86872013
10.3850,32.81665952
10.3900,32.76549123
10.3950,32.71520882
10.4000,32.66561095
10.4050,32.61645777
10.4100,32.56774372
10.4150,32.51937416
10.4200,32.4711542
10.4250,32.42288607
10.4300,32.37441347
10.4350,32.32567071
10.4400,32.27668162
10.4450,32.22717004
10.4500,32.17721171
10.4550,32.12649236
10.4600,32.07510986
10.4650,32.02264653
10.4700,31.96928524
10.4750,31.91478027
10.4800,31.85942186
10.4850,31.80313627
10.4900,31.74594026
10.4950,31.68772301
10.5000,31.62850966
10.5050,31.56819435
10.5100,31.5068936
10.5150,31.44453345
10.5200,31.38113468
10.5250,31.31686199
10.5300,31.25168209
10.5350,31.18545713
10.5400,31.11843012
10.5450,31.05051348
10.5500,30.98171853
10.5550,30.91219778
10.5600,30.84202818
10.5650,30.77137687
10.5700,30.70012071
10.5750,30.6285707
10.5800,30.55677483
10.5850,30.48490212
10.5900,30.41303547
10.5950,30.34131375
10.6000,30.26981941
10.6050,30.19878632
10.6100,30.12853507
10.6150,30.05910462
10.6200,29.99067128
10.6250,29.92326179
10.6300,29.8569815
10.6350,29.79189491
10.6400,29.7281141
10.6450,29.6658473
10.6500,29.60503851
10.6550,29.54590967
10.6600,29.48850686
10.6650,29.43280947
10.6700,29.37880594
10.6750,29.32672393
10.6800,29.27642772
10.6850,29.22804977
10.6900,29.18143302
10.6950,29.13671182
10.7000,29.0936171
10.7050,29.05243508
10.7100,29.01272854
10.7150,28.97462041
10.7200,28.93804922
10.7250,28.90296474
10.7300,28.86949528
10.7350,28.83751007
10.7400,28.80687535
10.7450,28.77803343
10.7500,28.7506238
10.7550,28.724768
10.7600,28.70047547
10.7650,28.67793872
10.7700,28.6570037
10.7750,28.6379824
10.7800,28.62081265
10.7850,28.60529611
10.7900,28.59158617
10.7950,28.57990541
10.8000,28.57026983
10.8050,28.56262272
10.8100,28.55708231
10.8150,28.55356533
10.8200,28.55219303
10.8250,28.55287914
10.8300,28.55569053
10.8350,28.56063737
10.8400,28.56770844
10.8450,28.57704834
10.8500,28.58875885
10.8550,28.60285136
10.8600,28.61944338
10.8650,28.63868792
10.8700,28.66081447
10.8750,28.68585003
10.8800,28.7138541
10.8850,28.74496092
10.8900,28.77934554
10.8950,28.81676691
10.9000,28.85755792
10.9050,28.90153331
10.9100,28.94854985
10.9150,28.99857934
10.9200,29.0516695
10.9250,29.10782514
10.9300,29.16701675
10.9350,29.22917668
10.9400,29.29414262
10.9450,29.3617855
10.9500,29.43201956
10.9550,29.50481471
10.9600,29.58021697
10.9650,29.65815963
10.9700,29.73864073
10.9750,29.82150934
10.9800,29.90678583
10.9850,29.99436329
10.9900,30.08438481
10.9950,30.17656182
11.0000,30.27113574
11.0050,30.36786732
11.0100,30.46685964
11.0150,30.56793562
11.0200,30.67116042
11.0250,30.7765215
11.0300,30.88373966
11.0350,30.99280388
11.0400,31.10368064
11.0450,31.21609111
11.0500,31.33019908
11.0550,31.44593005
11.0600,31.56302413
11.0650,31.68156167
11.0700,31.801511
11.0750,31.92273577
11.0800,32.04521174
11.0850,32.16880171
11.0900,32.29354895
11.0950,32.41933785
11.1000,32.54614764
11.1050,32.67406612
11.1100,32.80299103
11.1150,32.93308019
11.1200,33.06407272
11.1250,33.19605125
11.1300,33.32878568
11.1350,33.46241617
11.1400,33.59689098
11.1450,33.7319386
11.1500,33.86756869
11.1550,34.00363879
11.1600,34.14017812
11.1650,34.27693754
11.1700,34.41391677
11.1750,34.55105556
11.1800,34.68838
11.1850,34.82594099
11.1900,34.96359184
11.1950,35.10148529
11.2000,35.23947552
11.2050,35.37767069
11.2100,35.51600587
11.2150,35.65446564
11.2200,35.79305096
11.2250,35.93175033
11.2300,36.07058642
11.2350,36.20957942
11.2400,36.34875563
11.2450,36.48819896
11.2500,36.62785926
11.2550,36.76772393
11.2600,36.90776059
11.2650,37.04804953
11.2700,37.1886746
11.2750,37.32987634
11.2800,37.47160159
11.2850,37.61403398
11.2900,37.75717648
11.2950,37.90122939
11.3000,38.04597118
11.3050,38.1916682
11.3100,38.33819397
11.3150,38.48562739
11.3200,38.63387507
11.3250,38.7830969
11.3300,38.93327991
11.3350,39.08445305
11.3400,39.23669773
11.3450,39.39001533
11.3500,39.54441589
11.3550,39.70008794
11.3600,39.85686051
11.3650,40.01460268
11.3700,40.17338632
11.3750,40.33330056
11.3800,40.49433349
11.3850,40.65678381
11.3900,40.82047047
11.3950,40.98540112
11.4000,41.15165907
11.4050,41.31923307
11.4100,41.48806237
11.4150,41.6581834
11.4200,41.82953689
11.4250,42.00221106
11.4300,42.17620202
11.4350,42.35132805
11.4400,42.52747549
11.4450,42.70493797
11.4500,42.88370158
11.4550,43.06375592
11.4600,43.24496277
11.4650,43.42746816
11.4700,43.61112629
11.4750,43.79593078
11.4800,43.98166502
11.4850,44.16816634
11.4900,44.35561419
11.4950,44.5438433
11.5000,44.7326345
11.5050,44.92186594
11.5100,45.11159801
11.5150,45.30169411
11.5200,45.49209616
11.5250,45.68285086
11.5300,45.87373963
11.5350,46.0649188
11.5400,46.25633894
11.5450,46.44786246
11.5500,46.63958928
11.5550,46.83130249
11.5600,47.02297175
11.5650,47.21433955
11.5700,47.40517843
11.5750,47.5952615
11.5800,47.78465257
11.5850,47.97327116
11.5900,48.16104045
11.5950,48.34779905
11.6000,48.53381064
11.6050,48.71893876
11.6100,48.90330873
11.6150,49.08690463
11.6200,49.26960755
11.6250,49.45117714
11.6300,49.63168318
11.6350,49.81070737
11.6400,49.98817595
11.6450,50.16382746
11.6500,50.33763079
11.6550,50.50948231
11.6600,50.67973118
11.6650,50.84854301
11.6700,51.01592656
11.6750,51.18167046
11.6800,51.34592283
11.6850,51.50878713
11.6900,51.67036605
11.6950,51.83068338
11.7000,51.98978821
11.7050,52.14735752
11.7100,52.30372079
11.7150,52.45885454
11.7200,52.61289214
11.7250,52.76580163
11.7300,52.91767513
11.7350,53.06832349
11.7400,53.21771886
11.7450,53.36581634
11.7500,53.51246162
11.7550,53.65759375
11.7600,53.80106181
11.7650,53.94272382
11.7700,54.08284699
11.7750,54.22143984
11.7800,54.35841324
11.7850,54.49359353
11.7900,54.62696399
11.7950,54.75851293
11.8000,54.88862536
11.8050,55.01740965
11.8100,55.14471029
11.8150,55.2705282
11.8200,55.39470634
11.8250,55.51705439
11.8300,55.63741126
11.8350,55.7554977
11.8400,55.87090452
11.8450,55.98353893
11.8500,56.09325206
11.8550,56.20011144
11.8600,56.30421014
11.8650,56.4056524
11.8700,56.50431027
11.8750,56.59990724
11.8800,56.69221556
11.8850,56.78094829
11.8900,56.86612902
11.8950,56.9475088
11.9000,57.0248659
11.9050,57.09810312
11.9100,57.16713931
11.9150,57.2315682
11.9200,57.29128585
11.9250,57.34629738
11.9300,57.39663343
11.9350,57.44282684
11.9400,57.48469374
11.9450,57.52239834
11.9500,57.55604822
11.9550,57.58544781
11.9600,57.61056242
11.9650,57.63126695
11.9700,57.64752653
11.9750,57.65975413
11.9800,57.66780208
11.9850,57.6716853
11.9900,57.67184881
11.9950,57.66843996
12.0000,57.66167751
12.0050,57.65195691
12.0100,57.63915234
12.0150,57.6233139
12.0200,57.60457393
12.0250,57.58284105
12.0300,57.5579976
12.0350,57.53006742
12.0400,57.49920164
12.0450,57.46509
12.0500,57.42790092
12.0550,57.38783518
12.0600,57.34492842
12.0650,57.29951282
12.0700,57.25143851
12.0750,57.20081664
12.0800,57.14787943
12.0850,57.09282076
12.0900,57.0358088
12.0950,56.9768651
12.1000,56.91622611
12.1050,56.85397962
12.1100,56.79021795
12.1150,56.72485081
12.1200,56.65802066
12.1250,56.58974703
12.1300,56.51984189
12.1350,56.44844495
12.1400,56.37571624
12.1450,56.3017001
12.1500,56.22633739
12.1550,56.14944135
12.1600,56.07059944
12.1650,55.9892995
12.1700,55.90554885
12.1750,55.81920381
12.1800,55.73031508
12.1850,55.63880894
12.1900,55.54426631
12.1950,55.44656629
12.2000,55.34575592
12.2050,55.24160272
12.2100,55.13415695
12.2150,55.02370909
12.2200,54.91071705
12.2250,54.79508278
12.2300,54.67703772
12.2350,54.5564662
12.2400,54.43364077
12.2450,54.30864374
12.2500,54.18139696
12.2550,54.05176024
12.2600,53.91954406
12.2650,53.78480076
12.2700,53.64774421
12.2750,53.50815674
12.2800,53.36617692
12.2850,53.22192014
12.2900,53.07490016
12.2950,52.92512393
12.3000,52.77249761
12.3050,52.61721038
12.3100,52.45928113
12.3150,52.29862139
12.3200,52.13515323
12.3250,51.96893721
12.3300,51.80043798
12.3350,51.62969286
12.3400,51.45635693
12.3450,51.28081542
12.3500,51.10289365
12.3550,50.92273408
12.3600,50.74062453
12.3650,50.55625812
12.3700,50.37010419
12.3750,50.18231869
12.3800,49.99304014
12.3850,49.80243873
12.3900,49.61024528
12.3950,49.41662203
12.4000,49.22147538
12.4050,49.02492667
12.4100,48.82695285
12.4150,48.62753913
12.4200,48.42676012
12.4250,48.22452104
12.4300,48.02105287
12.4350,47.81641411
12.4400,47.61068914
12.4450,47.40383836
12.4500,47.19595369
12.4550,46.9870518
12.4600,46.77733261
12.4650,46.56689759
12.4700,46.35576518
12.4750,46.14370995
12.4800,45.93064213
12.4850,45.71654607
12.4900,45.5017994
12.4950,45.28658128
12.5000,45.07082305
12.5050,44.85472403
12.5100,44.63818468
12.5150,44.4213631
12.5200,44.20422592
12.5250,43.98675817
12.5300,43.76881054
12.5350,43.55028965
12.5400,43.33133601
12.5450,43.11189581
12.5500,42.89195612
12.5550,42.67183395
12.5600,42.45152344
12.5650,42.23103404
12.5700,42.01018355
12.5750,41.7891262
12.5800,41.5677007
12.5850,41.34587835
12.5900,41.12389548
12.5950,40.90178138
12.6000,40.67955716
12.6050,40.45697914
12.6100,40.23421843
12.6150,40.01115755
12.6200,39.78797769
12.6250,39.56477638
12.6300,39.34149217
12.6350,39.11824943
12.6400,38.89539457
12.6450,38.67292846
12.6500,38.45098956
12.6550,38.22972317
12.6600,38.00902591
12.6650,37.78913056
12.6700,37.56971946
12.6750,37.35066753
12.6800,37.13182707
12.6850,36.91316158
12.6900,36.69481588
12.6950,36.47646851
12.7000,36.25813757
12.7050,36.03972803
12.7100,35.8212532
12.7150,35.60292721
12.7200,35.38462221
12.7250,35.16646231
12.7300,34.94842278
12.7350,34.73035259
12.7400,34.51232314
12.7450,34.29429805
12.7500,34.07607311
12.7550,33.85762932
12.7600,33.63904847
12.7650,33.4202897
12.7700,33.20130208
12.7750,32.98222827
12.7800,32.76312136
12.7850,32.54397712
12.7900,32.32490239
12.7950,32.10570911
12.8000,31.88663549
12.8050,31.66787207
12.8100,31.44931926
12.8150,31.23104975
12.8200,31.01295188
12.8250,30.79499123
12.8300,30.57707759
12.8350,30.35924265
12.8400,30.14145133
12.8450,29.92353519
12.8500,29.70554696
12.8550,29.48727716
12.8600,29.26896069
12.8650,29.05048349
12.8700,28.83202879
12.8750,28.61363904
12.8800,28.39551576
12.8850,28.17772746
12.8900,27.96029626
12.8950,27.74337614
12.9000,27.52665999
12.9050,27.31039609
12.9100,27.09452963
12.9150,26.87928699
12.9200,26.6644821
12.9250,26.45032867
12.9300,26.23666087
12.9350,26.02343678
12.9400,25.81077361
12.9450,25.5985379
12.9500,25.386842
12.9550,25.17556961
12.9600,24.96482217
12.9650,24.75462887
12.9700,24.54501602
12.9750,24.3358356
12.9800,24.12743524
12.9850,23.91962537
12.9900,23.71258087
12.9950,23.50648436
13.0000,23.3011441
13.0050,23.09666628
13.0100,22.89308759
13.0150,22.69044617
13.0200,22.48885937
13.0250,22.28825232
13.0300,22.08873941
13.0350,21.89060135
13.0400,21.69382059
13.0450,21.49851326
13.0500,21.30471685
13.0550,21.11243745
13.0600,20.92176454
13.0650,20.73278902
13.0700,20.54538931
13.0750,20.35968115
13.0800,20.1756134
13.0850,19.99331637
13.0900,19.81234388
13.0950,19.63292818
13.1000,19.45503008
13.1050,19.27832384
13.1100,19.1030379
13.1150,18.92903076
13.1200,18.75631336
13.1250,18.58496709
13.1300,18.41486957
13.1350,18.2460178
13.1400,18.07830606
13.1450,17.91171402
13.1500,17.74626134
13.1550,17.58203141
13.1600,17.41884703
13.1650,17.25691722
13.1700,17.09595268
13.1750,16.93592953
13.1800,16.77674962
13.1850,16.61835621
13.1900,16.46085428
13.1950,16.30390473
13.2000,16.14783553
13.2050,15.99249352
13.2100,15.83767009
13.2150,15.68345835
13.2200,15.52991416
13.2250,15.37691335
13.2300,15.22453001
13.2350,15.07294306
13.2400,14.92204904
13.2450,14.77184725
13.2500,14.62238094
13.2550,14.47363633
13.2600,14.32585476
13.2650,14.17905072
13.2700,14.03329239
13.2750,13.88897765
13.2800,13.74595204
13.2850,13.60456126
13.2900,13.46467746
13.2950,13.32651874
13.3000,13.1903858
13.3050,13.05641091
13.3100,12.92496185
13.3150,12.79598251
13.3200,12.6698693
13.3250,12.54692164
13.3300,12.42721013
13.3350,12.31077628
13.3400,12.19770834
13.3450,12.08807781
13.3500,11.98202381
13.3550,11.87952627
13.3600,11.78051416
13.3650,11.68486774
13.3700,11.59260917
13.3750,11.50348804
13.3800,11.4173913
13.3850,11.33425622
13.3900,11.25425716
13.3950,11.17721324
13.4000,11.10292451
13.4050,11.0314973
13.4100,10.96283839
13.4150,10.89698917
13.4200,10.83386703
13.4250,10.77354811
13.4300,10.71606937
13.4350,10.66145774
13.4400,10.60979035
13.4450,10.56120865
13.4500,10.51562607
13.4550,10.47319705
13.4600,10.43408328
13.4650,10.39830202
13.4700,10.36592533
13.4750,10.33703954
13.4800,10.31153175
13.4850,10.28939346
13.4900,10.27070033
13.4950,10.25544725
13.5000,10.24369247
13.5050,10.23535247
13.5100,10.23057698
13.5150,10.22911781
13.5200,10.23091224
13.5250,10.23600006
13.5300,10.24437646
13.5350,10.25604997
13.5400,10.27111853
13.5450,10.28962721
13.5500,10.31154864
13.5550,10.33689515
13.5600,10.36577287
13.5650,10.39818786
13.5700,10.43427296
13.5750,10.47396299
13.5800,10.51754103
13.5850,10.56490468
13.5900,10.61628721
13.5950,10.6716357
13.6000,10.73112317
13.6050,10.79487756
13.6100,10.86287072
13.6150,10.93520511
13.6200,11.01187414
13.6250,11.09289085
13.6300,11.17848486
13.6350,11.26868466
13.6400,11.36356609
13.6450,11.46299719
13.6500,11.56723336
13.6550,11.6763225
13.6600,11.79020073
13.6650,11.90924853
13.6700,12.03334275
13.6750,12.16262331
13.6800,12.29729414
13.6850,12.43733741
13.6900,12.5826341
13.6950,12.73341881
13.7000,12.88974035
13.7050,13.05137344
13.7100,13.21846646
13.7150,13.3907531
13.7200,13.56827161
13.7250,13.75094894
13.7300,13.93873039
13.7350,14.1313281
13.7400,14.32873538
13.7450,14.53088483
13.7500,14.737546
13.7550,14.94852639
13.7600,15.16369422
13.7650,15.38260746
13.7700,15.60523431
13.7750,15.83141994
13.7800,16.06110848
13.7850,16.29410169
13.7900,16.53027696
13.7950,16.76958681
13.8000,17.01163561
13.8050,17.25647626
13.8100,17.50393754
13.8150,17.75411489
13.8200,18.00688692
13.8250,18.26213278
13.8300,18.51988516
13.8350,18.77987174
13.8400,19.0419837
13.8450,19.30628245
13.8500,19.57261929
13.8550,19.84100043
13.8600,20.11116304
13.8650,20.38310212
13.8700,20.65664791
13.8750,20.93173494
13.8800,21.20796087
13.8850,21.48537301
13.8900,21.76395179
13.8950,22.04350339
13.9000,22.3238873
13.9050,22.60503617
13.9100,22.88679219
13.9150,23.16925033
13.9200,23.45214109
13.9250,23.73547622
13.9300,24.01904609
13.9350,24.30286419
13.9400,24.58696331
13.9450,24.87142931
13.9500,25.1559543
13.9550,25.4406282
13.9600,25.72553154
13.9650,26.01023338
13.9700,26.29487616
13.9750,26.57938339
13.9800,26.86360279
13.9850,27.14745812
13.9900,27.43101094
13.9950,27.71390639
14.0000,27.99615727
14.0050,28.2780485
14.0100,28.55916634
14.0150,28.83969728
14.0200,29.11945291
14.0250,29.39846462
14.0300,29.67672174
14.0350,29.95428801
14.0400,30.2309082
14.0450,30.50643689
14.0500,30.78105131
14.0550,31.05463161
14.0600,31.32711233
14.0650,31.59864838
14.0700,31.86924188
14.0750,32.13873112
14.0800,32.40725942
14.0850,32.67476922
14.0900,32.94104162
14.0950,33.20603351
14.1000,33.46990358
14.1050,33.7325769
14.1100,33.99390112
14.1150,34.25359539
14.1200,34.51189144
14.1250,34.76864358
14.1300,35.02363474
14.1350,35.27702023
14.1400,35.52888151
14.1450,35.77910788
14.1500,36.02784543
14.1550,36.27508522
14.1600,36.52090437
14.1650,36.76508594
14.1700,37.00768171
14.1750,37.24855996
14.1800,37.4879196
14.1850,37.72575697
14.1900,37.96187993
14.1950,38.19634958
14.2000,38.42915779
14.2050,38.66023472
14.2100,38.88957466
14.2150,39.11723198
14.2200,39.34319
14.2250,39.5673239
14.2300,39.78987906
14.2350,40.01093899
14.2400,40.23057507
14.2450,40.44876004
14.2500,40.66567879
14.2550,40.88122689
14.2600,41.09542868
14.2650,41.30838804
14.2700,41.52016976
14.2750,41.73073558
14.2800,41.94012666
14.2850,42.14835151
14.2900,42.35549751
14.2950,42.56183942
14.3000,42.76731177
14.3050,42.97175822
14.3100,43.1753839
14.3150,43.37807219
14.3200,43.58011442
14.3250,43.78140162
14.3300,43.9819779
14.3350,44.18192265
14.3400,44.38140638
14.3450,44.58045165
14.3500,44.77896303
14.3550,44.97703622
14.3600,45.17481192
14.3650,45.37222626
14.3700,45.56936893
14.3750,45.76626632
14.3800,45.9628089
14.3850,46.15927216
14.3900,46.35541209
14.3950,46.5511375
14.4000,46.74633481
14.4050,46.9406947
14.4100,47.13426194
14.4150,47.32688084
14.4200,47.51847558
14.4250,47.70901335
14.4300,47.89857831
14.4350,48.08712023
14.4400,48.27438434
14.4450,48.4604838
14.4500,48.64521017
14.4550,48.82846926
14.4600,49.01021112
14.4650,49.19055925
14.4700,49.36949172
14.4750,49.54704893
14.4800,49.72315397
14.4850,49.89776653
14.4900,50.07096071
14.4950,50.24284691
14.5000,50.41328607
14.5050,50.58234084
14.5100,50.74993108
14.5150,50.91617532
14.5200,51.08119404
14.5250,51.2451603
14.5300,51.4076399
14.5350,51.56827369
14.5400,51.7269139
14.5450,51.88336921
14.5500,52.03766226
14.5550,52.18968793
14.5600,52.33929458
14.5650,52.48670303
14.5700,52.63183237
14.5750,52.77466826
14.5800,52.91539118
14.5850,53.0538277
14.5900,53.18993747
14.5950,53.32354487
14.6000,53.45463424
14.6050,53.58326702
14.6100,53.70951888
14.6150,53.83356957
14.6200,53.95549919
14.6250,54.07543046
14.6300,54.19330877
14.6350,54.30908859
14.6400,54.4227282
14.6450,54.53409206
14.6500,54.64329799
14.6550,54.75042687
14.6600,54.85529886
14.6650,54.95814747
14.6700,55.05876284
14.6750,55.15716079
14.6800,55.2532123
14.6850,55.34676994
14.6900,55.43766612
14.6950,55.52590057
14.7000,55.61125416
14.7050,55.69371845
14.7100,55.77339801
14.7150,55.85004176
14.7200,55.92365554
14.7250,55.99424853
14.7300,56.06184363
14.7350,56.12646899
14.7400,56.18797726
14.7450,56.24624937
14.7500,56.30114
14.7550,56.35285811
14.7600,56.40117957
14.7650,56.4461386
14.7700,56.48767567
14.7750,56.52577805
14.7800,56.5601369
14.7850,56.59069299
14.7900,56.61770774
14.7950,56.64092103
14.8000,56.66058709
14.8050,56.67656616
14.8100,56.6892481
14.8150,56.69895947
14.8200,56.70586896
14.8250,56.70989914
14.8300,56.71086369
14.8350,56.70850751
14.8400,56.7023854
14.8450,56.69221752
14.8500,56.67797931
14.8550,56.65991568
14.8600,56.6384753
14.8650,56.61375683
14.8700,56.58617412
14.8750,56.55594924
14.8800,56.52329258
14.8850,56.48829912
14.8900,56.45094485
14.8950,56.41137745
14.9000,56.36958173
14.9050,56.32550046
14.9100,56.27909561
14.9150,56.23035114
14.9200,56.17942865
14.9250,56.12628846
14.9300,56.0710773
14.9350,56.01386388
14.9400,55.95446134
14.9450,55.89331554
14.9500,55.83041029
14.9550,55.76524847
14.9600,55.69753182
14.9650,55.62696419
14.9700,55.55335176
14.9750,55.47622613
14.9800,55.39552784
14.9850,55.31066957
14.9900,55.22190731
14.9950,55.1291585
15.0000,55.03266929
15.0050,54.93251489
15.0100,54.82847637
15.0150,54.7209098
15.0200,54.60996934
15.0250,54.49561587
15.0300,54.37809002
15.0350,54.25707785
15.0400,54.13270574
15.0450,54.00534393
15.0500,53.87543882
15.0550,53.74295571
15.0600,53.6085348
15.0650,53.4723617
15.0700,53.33474487
15.0750,53.19575373
15.0800,53.05565106
15.0850,52.91462338
15.0900,52.77264482
15.0950,52.63014938
15.1000,52.48753632
15.1050,52.34498496
15.1100,52.20236528
15.1150,52.05936982
15.1200,51.9156954
15.1250,51.77117182
15.1300,51.62591758
15.1350,51.48032301
15.1400,51.33448159
15.1450,51.18872013
15.1500,51.04300089
15.1550,50.89720392
15.1600,50.75103104
15.1650,50.60426389
15.1700,50.45652262
15.1750,50.30764466
15.1800,50.15750228
15.1850,50.00598825
15.1900,49.85333645
15.1950,49.69958091
15.2000,49.54511559
15.2050,49.38981605
15.2100,49.23366237
15.2150,49.0765574
15.2200,48.91845879
15.2250,48.75938576
15.2300,48.5991351
15.2350,48.43798367
15.2400,48.27583816
15.2450,48.11257197
15.2500,47.94816581
15.2550,47.78289795
15.2600,47.61700473
15.2650,47.45040594
15.2700,47.28311177
15.2750,47.11561753
15.2800,46.94764675
15.2850,46.77968256
15.2900,46.61192351
15.2950,46.44468513
15.3000,46.27788954
15.3050,46.11171634
15.3100,45.94631963
15.3150,45.78176269
15.3200,45.61814718
15.3250,45.45558127
15.3300,45.29418615
15.3350,45.13428824
15.3400,44.97600586
15.3450,44.81939178
15.3500,44.66441949
15.3550,44.51131238
15.3600,44.35969822
15.3650,44.2098569
15.3700,44.06163245
15.3750,43.91521186
15.3800,43.77052143
15.3850,43.62770072
15.3900,43.48671091
15.3950,43.34752296
15.4000,43.21001771
15.4050,43.07418495
15.4100,42.94001975
15.4150,42.80759686
15.4200,42.67695215
15.4250,42.5482836
15.4300,42.42152609
15.4350,42.29685398
15.4400,42.1742033
15.4450,42.05346322
15.4500,41.93474927
15.4550,41.81798824
15.4600,41.70324208
15.4650,41.59058389
15.4700,41.47988715
15.4750,41.37112584
15.4800,41.26416873
15.4850,41.15898097
15.4900,41.05536168
15.4950,40.95307641
15.5000,40.85197113
15.5050,40.75198912
15.5100,40.65319724
15.5150,40.55551715
15.5200,40.45859978
15.5250,40.36232858
15.5300,40.26662178
15.5350,40.17133457
15.5400,40.0767048
15.5450,39.98240795
15.5500,39.88842815
15.5550,39.79458823
15.5600,39.70068361
15.5650,39.60688561
15.5700,39.51309755
15.5750,39.41902115
15.5800,39.32473112
15.5850,39.23009477
15.5900,39.13499592
15.5950,39.03955293
15.6000,38.94369849
15.6050,38.84740167
15.6100,38.75066425
15.6150,38.65354888
15.6200,38.55614479
15.6250,38.45836261
15.6300,38.36012389
15.6350,38.26123324
15.6400,38.16172868
15.6450,38.06138672
15.6500,37.96020049
15.6550,37.85794579
15.6600,37.7548276
15.6650,37.65058915
15.6700,37.54517075
15.6750,37.43846091
15.6800,37.33054371
15.6850,37.22130483
15.6900,37.11067765
15.6950,36.99871153
15.7000,36.88515761
15.7050,36.76995409
15.7100,36.65314594
15.7150,36.53461202
15.7200,36.41429742
15.7250,36.29221055
15.7300,36.16849768
15.7350,36.04281548
15.7400,35.91539284
15.7450,35.7863405
15.7500,35.65552405
15.7550,35.52313904
15.7600,35.38919044
15.7650,35.25398684
15.7700,35.11748481
15.7750,34.97969364
15.7800,34.84087193
15.7850,34.7011786
15.7900,34.56046437
15.7950,34.41913061
15.8000,34.27715221
15.8050,34.13473693
15.8100,33.99198103
15.8150,33.84920879
15.8200,33.70647762
15.8250,33.56401315
15.8300,33.42224059
15.8350,33.28130967
15.8400,33.14119582
15.8450,33.00215385
15.8500,32.86435547
15.8550,32.72813282
15.8600,32.59371445
15.8650,32.46117613
15.8700,32.33084406
15.8750,32.20284215
15.8800,32.07745101
15.8850,31.9548084
15.8900,31.83500995
15.8950,31.71807299
15.9000,31.60410666
15.9050,31.49311364
15.9100,31.38490337
15.9150,31.2793466
15.9200,31.17620996
15.9250,31.07560157
15.9300,30.97725629
15.9350,30.88111316
15.9400,30.78709059
15.9450,30.69500582
15.9500,30.60471252
15.9550,30.51611702
15.9600,30.42878563
15.9650,30.3425115
15.9700,30.25700026
15.9750,30.17208898
15.9800,30.08729281
15.9850,30.00220769
15.9900,29.91667881
15.9950,29.83008364
16.0000,29.74210116
16.0050,29.6525081
16.0100,29.5609468
16.0150,29.46695425
16.0200,29.37050571
16.0250,29.27135597
16.0300,29.16932954
16.0350,29.06435726
16.0400,28.95606172
16.0450,28.844349
16.0500,28.72946203
16.0550,28.611168
16.0600,28.48967459
16.0650,28.36502502
16.0700,28.23747195
16.0750,28.10747684
16.0800,27.97542141
16.0850,27.84155775
16.0900,27.70650613
16.0950,27.57062922
16.1000,27.43440008
16.1050,27.29806065
16.1100,27.16211405
16.1150,27.02687602
16.1200,26.8928082
16.1250,26.76027931
16.1300,26.62961206
16.1350,26.50101017
16.1400,26.37498846
16.1450,26.2521941
16.1500,26.13283366
16.1550,26.01736939
16.1600,25.90603879
16.1650,25.79915463
16.1700,25.69704653
16.1750,25.6000218
16.1800,25.50818067
16.1850,25.42185657
16.1900,25.3412553
16.1950,25.26639751
16.2000,25.19747862
16.2050,25.13457507
16.2100,25.07800562
16.2150,25.02782121
16.2200,24.98412354
16.2250,24.94677655
16.2300,24.91576521
16.2350,24.8911508
16.2400,24.87257025
16.2450,24.86006599
16.2500,24.85333466
16.2550,24.85193002
16.2600,24.85568014
16.2650,24.86428009
16.2700,24.87745149
16.2750,24.89475348
16.2800,24.91611445
16.2850,24.94120529
16.2900,24.96977699
16.2950,25.00160911
16.3000,25.03664031
16.3050,25.07448986
16.3100,25.1148923
16.3150,25.1579628
16.3200,25.20328394
16.3250,25.25073415
16.3300,25.29999772
16.3350,25.35098407
16.3400,25.40354683
16.3450,25.45763184
16.3500,25.51271563
16.3550,25.56907667
16.3600,25.6264964
16.3650,25.68464218
16.3700,25.74373509
16.3750,25.80370201
16.3800,25.8642631
16.3850,25.92551567
16.3900,25.98747253
16.3950,26.04961804
16.4000,26.11214594
16.4050,26.17493968
16.4100,26.23805176
16.4150,26.30150067
16.4200,26.36522328
16.4250,26.42939131
16.4300,26.49408205
16.4350,26.55927451
16.4400,26.62529745
16.4450,26.6919437
16.4500,26.75928642
16.4550,26.82736558
16.4600,26.89640606
16.4650,26.96642097
16.4700,27.03748976
16.4750,27.10955253
16.4800,27.18291589
16.4850,27.25752646
16.4900,27.33353489
16.4950,27.4108514
16.5000,27.48970195
16.5050,27.5701463
16.5100,27.65233842
16.5150,27.73633375
16.5200,27.82216164
16.5250,27.9097962
16.5300,27.9993934
16.5350,28.09084952
16.5400,28.18431445
16.5450,28.2796762
16.5500,28.37695022
16.5550,28.47633
16.5600,28.57761495
16.5650,28.68101945
16.5700,28.78658595
16.5750,28.89428322
16.5800,29.00419067
16.5850,29.11639516
16.5900,29.23084837
16.5950,29.34770147
16.6000,29.46681128
16.6050,29.58823806
16.6100,29.71198732
16.6150,29.83791456
16.6200,29.96591611
16.6250,30.09589364
16.6300,30.22793896
16.6350,30.36193815
16.6400,30.49800682
16.6450,30.63596929
16.6500,30.77598157
16.6550,30.917864
16.6600,31.06166222
16.6650,31.20738398
16.6700,31.35494729
16.6750,31.50419319
16.6800,31.65512428
16.6850,31.80762968
16.6900,31.9614745
16.6950,32.11694708
16.7000,32.27370271
16.7050,32.43187769
16.7100,32.59125815
16.7150,32.75167809
16.7200,32.91325644
16.7250,33.07579217
16.7300,33.23903661
16.7350,33.40311186
16.7400,33.56760333
16.7450,33.73257395
16.7500,33.89792186
16.7550,34.06366486
16.7600,34.22950741
16.7650,34.395484
16.7700,34.56153099
16.7750,34.72778978
16.7800,34.89401808
16.7850,35.06026744
16.7900,35.22642385
16.7950,35.39278727
16.8000,35.55913314
16.8050,35.72559833
16.8100,35.89185783
16.8150,36.05816739
16.8200,36.22440472
16.8250,36.39076551
16.8300,36.55693749
16.8350,36.72297546
16.8400,36.88885892
16.8450,37.05453372
16.8500,37.22005385
16.8550,37.38534684
16.8600,37.55055851
16.8650,37.71546422
16.8700,37.87994675
16.8750,38.04419132
16.8800,38.20802864
16.8850,38.37144105
16.8900,38.53438388
16.8950,38.69671993
16.9000,38.85853217
16.9050,39.01994892
16.9100,39.18094906
16.9150,39.34154191
16.9200,39.50181549
16.9250,39.66178669
16.9300,39.82145925
16.9350,39.98077994
16.9400,40.13975813
16.9450,40.29828764
16.9500,40.45662454
16.9550,40.6148039
16.9600,40.77276371
16.9650,40.93073754
16.9700,41.08878717
16.9750,41.24689377
16.9800,41.40512592
16.9850,41.56350393
16.9900,41.72209123
16.9950,41.88101523
17.0000,42.04040936
17.0050,42.20034456
17.0100,42.36084518
17.0150,42.52177616
17.0200,42.68316676
17.0250,42.84510124
17.0300,43.00760225
17.0350,43.17050552
17.0400,43.33405218
17.0450,43.49818385
17.0500,43.66291258
17.0550,43.82804516
17.0600,43.9937805
17.0650,44.15998404
17.0700,44.32661914
17.0750,44.49358321
17.0800,44.66087141
17.0850,44.82854302
17.0900,44.99656473
17.0950,45.16481432
17.1000,45.33347312
17.1050,45.502535
17.1100,45.67206859
17.1150,45.84194982
17.1200,46.01243042
17.1250,46.18316675
17.1300,46.35455381
17.1350,46.52639206
17.1400,46.69879347
17.1450,46.8715162
17.1500,47.0444599
17.1550,47.21750885
17.1600,47.39062225
17.1650,47.56373459
17.1700,47.73695649
17.1750,47.91022658
17.1800,48.08341767
17.1850,48.25654705
17.1900,48.42958268
17.1950,48.60263661
17.2000,48.77573325
17.2050,48.94880733
17.2100,49.12167061
17.2150,49.29420775
17.2200,49.46646731
17.2250,49.63837604
17.2300,49.80997172
17.2350,49.98134993
17.2400,50.15230347
17.2450,50.32308038
17.2500,50.49355658
17.2550,50.6636235
17.2600,50.83323462
17.2650,51.00223613
17.2700,51.17039405
17.2750,51.33778568
17.2800,51.50448013
17.2850,51.67034183
17.2900,51.83525606
17.2950,51.99899495
17.3000,52.16137544
17.3050,52.3222963
17.3100,52.481703
17.3150,52.63986195
17.3200,52.79656609
17.3250,52.95170669
17.3300,53.10534804
17.3350,53.25763629
17.3400,53.40841034
17.3450,53.55767936
17.3500,53.70545537
17.3550,53.85141939
17.3600,53.9955118
17.3650,54.13793162
17.3700,54.27844116
17.3750,54.41712099
17.3800,54.55415544
17.3850,54.6892244
17.3900,54.82223467
17.3950,54.95324979
17.4000,55.08225409
17.4050,55.20934182
17.4100,55.33461972
17.4150,55.45832098
17.4200,55.58039831
17.4250,55.70113882
17.4300,55.82056859
17.4350,55.93856219
17.4400,56.05499392
17.4450,56.16999001
17.4500,56.28348282
17.4550,56.39552738
17.4600,56.50603238
17.4650,56.61518376
17.4700,56.72272038
17.4750,56.82872977
17.4800,56.93333709
17.4850,57.03668319
17.4900,57.13872489
17.4950,57.23947717
17.5000,57.33891838
17.5050,57.43689219
17.5100,57.53348013
17.5150,57.62866987
17.5200,57.72236655
17.5250,57.81465505
17.5300,57.90527743
17.5350,57.99429648
17.5400,58.08149846
17.5450,58.16671756
17.5500,58.24952086
17.5550,58.32944464
17.5600,58.40643373
17.5650,58.48029047
17.5700,58.55060981
17.5750,58.61681138
17.5800,58.67835966
17.5850,58.7352423
17.5900,58.7873628
17.5950,58.83468433
17.6000,58.87695885
17.6050,58.91407988
17.6100,58.94568183
17.6150,58.97180213
17.6200,58.99229519
17.6250,59.00723323
17.6300,59.01674201
17.6350,59.02065039
17.6400,59.01929574
17.6450,59.0126581
17.6500,59.0011087
17.6550,58.98481006
17.6600,58.96373626
17.6650,58.93757427
17.6700,58.90624769
17.6750,58.86951818
17.6800,58.82735912
17.6850,58.77994486
17.6900,58.72749569
17.6950,58.66986262
17.7000,58.60704594
17.7050,58.53898349
17.7100,58.46576697
17.7150,58.38678867
17.7200,58.30209959
17.7250,58.21177822
17.7300,58.11589368
17.7350,58.01463399
17.7400,57.90818436
17.7450,57.79670167
17.7500,57.68077889
17.7550,57.56054481
17.7600,57.43628386
17.7650,57.30773354
17.7700,57.1753168
17.7750,57.03882497
17.7800,56.89868451
17.7850,56.75488696
17.7900,56.60765944
17.7950,56.45711317
17.8000,56.30336697
17.8050,56.14623834
17.8100,55.98588762
17.8150,55.82217893
17.8200,55.65502112
17.8250,55.4843049
17.8300,55.31009557
17.8350,55.13241857
17.8400,54.95155802
17.8450,54.76756758
17.8500,54.58082075
17.8550,54.39158908
17.8600,54.19996431
17.8650,54.00595105
17.8700,53.81014169
17.8750,53.61267982
17.8800,53.41383902
17.8850,53.2132729
17.8900,53.01107384
17.8950,52.80708351
17.9000,52.60175143
17.9050,52.39534049
17.9100,52.18797143
17.9150,51.97972124
17.9200,51.77083198
17.9250,51.56153088
17.9300,51.35178305
17.9350,51.14168384
17.9400,50.93108954
17.9450,50.71975929
17.9500,50.50760143
17.9550,50.29470399
17.9600,50.08101814
17.9650,49.86684932
17.9700,49.65232909
17.9750,49.43751392
17.9800,49.2224555
17.9850,49.00727527
17.9900,48.79206094
17.9950,48.57711614
18.0000,48.36217949
18.0050,48.14737742
18.0100,47.93284475
18.0150,47.71891254
18.0200,47.50558786
18.0250,47.29280675
18.0300,47.08044682
18.0350,46.86870384
18.0400,46.65745371
18.0450,46.44698981
18.0500,46.23714737
18.0550,46.02811231
18.0600,45.82006781
18.0650,45.61325127
18.0700,45.4077441
18.0750,45.20359878
18.0800,45.00051334
18.0850,44.79826528
18.0900,44.5969243
18.0950,44.39606617
18.1000,44.19558628
18.1050,43.99571451
18.1100,43.79630302
18.1150,43.59759455
18.1200,43.39955479
18.1250,43.20218219
18.1300,43.00545588
18.1350,42.80932556
18.1400,42.61356524
18.1450,42.41833093
18.1500,42.22334922
18.1550,42.02857019
18.1600,41.83372071
18.1650,41.63859053
18.1700,41.44297953
18.1750,41.24694024
18.1800,41.05038058
18.1850,40.85344758
18.1900,40.65606402
18.1950,40.45822288
18.2000,40.25970744
18.2050,40.06036402
18.2100,39.86001327
18.2150,39.65844361
18.2200,39.45558877
18.2250,39.25117705
18.2300,39.04500722
18.2350,38.8372173
18.2400,38.62754614
18.2450,38.41631959
18.2500,38.2033307
18.2550,37.9888103
18.2600,37.77274624
18.2650,37.55495999
18.2700,37.33560482
18.2750,37.11479056
18.2800,36.89259541
18.2850,36.66891957
18.2900,36.44371301
18.2950,36.21703844
18.3000,35.98922315
18.3050,35.76023721
18.3100,35.53017844
18.3150,35.29915064
18.3200,35.06723874
18.3250,34.83466367
18.3300,34.60159385
18.3350,34.36808956
18.3400,34.13431694
18.3450,33.90014985
18.3500,33.66575576
18.3550,33.43117629
18.3600,33.19641671
18.3650,32.96152246
18.3700,32.72645969
18.3750,32.49144351
18.3800,32.25659622
18.3850,32.0220907
18.3900,31.78793746
18.3950,31.55432846
18.4000,31.32135969
18.4050,31.08907296
18.4100,30.85765627
18.4150,30.62690286
18.4200,30.39710904
18.4250,30.16813451
18.4300,29.94009859
18.4350,29.71292721
18.4400,29.48668926
18.4450,29.2612608
18.4500,29.03657461
18.4550,28.81273085
18.4600,28.58975492
18.4650,28.3677347
18.4700,28.14664757
18.4750,27.92655899
18.4800,27.70733497
18.4850,27.4889824
18.4900,27.27146276
18.4950,27.05479689
18.5000,26.83901376
18.5050,26.62415082
18.5100,26.41024902
18.5150,26.19755419
18.5200,25.98593981
18.5250,25.77531053
18.5300,25.56589458
18.5350,25.35761169
18.5400,25.15068113
18.5450,24.94481479
18.5500,24.74015393
18.5550,24.53666566
18.5600,24.33418259
18.5650,24.13289931
18.5700,23.93273684
18.5750,23.73366126
18.5800,23.53558185
18.5850,23.33868006
18.5900,23.14301843
18.5950,22.9483579
18.6000,22.75481985
18.6050,22.5623838
18.6100,22.37095957
18.6150,22.18066742
18.6200,21.99132088
18.6250,21.80284656
18.6300,21.61539415
18.6350,21.42881552
18.6400,21.24313605
18.6450,21.05831472
18.6500,20.87431555
18.6550,20.69110331
18.6600,20.50874069
18.6650,20.3271337
18.6700,20.14629146
18.6750,19.96603599
18.6800,19.78635635
18.6850,19.60731228
18.6900,19.42890094
18.6950,19.2510351
18.7000,19.07390296
18.7050,18.89745394
18.7100,18.72160318
18.7150,18.54663596
18.7200,18.37230241
18.7250,18.19879555
18.7300,18.02610695
18.7350,17.85434064
18.7400,17.68366412
18.7450,17.51391382
18.7500,17.3451651
18.7550,17.17734698
18.7600,17.01070873
18.7650,16.84511701
18.7700,16.68069767
18.7750,16.51736097
18.7800,16.35536966
18.7850,16.19454129
18.7900,16.03506114
18.7950,15.8769437
18.8000,15.72034102
18.8050,15.56527628
18.8100,15.41196286
18.8150,15.2601899
18.8200,15.11006399
18.8250,14.96172855
18.8300,14.81530544
18.8350,14.67075225
18.8400,14.52833753
18.8450,14.38804755
18.8500,14.24986497
18.8550,14.11394039
18.8600,13.98061838
18.8650,13.84983385
18.8700,13.72163747
18.8750,13.59609835
18.8800,13.47341432
18.8850,13.3537626
18.8900,13.2372402
18.8950,13.12392505
18.9000,13.01390309
18.9050,12.90720378
18.9100,12.80394624
18.9150,12.70406363
18.9200,12.60788813
18.9250,12.5151855
18.9300,12.42605294
18.9350,12.34040253
18.9400,12.25823948
18.9450,12.1794413
18.9500,12.10414177
18.9550,12.03200102
18.9600,11.96304523
18.9650,11.89721541
18.9700,11.83430568
18.9750,11.77427779
18.9800,11.71718245
18.9850,11.6629267
18.9900,11.61143842
18.9950,11.56266504
19.0000,11.51660392
19.0050,11.4734009
19.0100,11.43292057
19.0150,11.39519613
19.0200,11.36043505
19.0250,11.32862981
19.0300,11.29999378
19.0350,11.27451343
19.0400,11.25215097
19.0450,11.23306584
19.0500,11.21744653
19.0550,11.20506641
19.0600,11.1960154
19.0650,11.19020376
19.0700,11.1877313
19.0750,11.18859231
19.0800,11.19257789
19.0850,11.19996453
19.0900,11.21052135
19.0950,11.22442034
19.1000,11.24127111
19.1050,11.26110868
19.1100,11.28397899
19.1150,11.30998254
19.1200,11.33921655
19.1250,11.37173925
19.1300,11.40744608
19.1350,11.44659349
19.1400,11.48895362
19.1450,11.53478988
19.1500,11.58429737
19.1550,11.63725664
19.1600,11.69388751
19.1650,11.75415021
19.1700,11.8181022
19.1750,11.88593198
19.1800,11.95751163
19.1850,12.0327641
19.1900,12.11155412
19.1950,12.19407823
19.2000,12.28031148
19.2050,12.37018292
19.2100,12.46364295
19.2150,12.56075096
19.2200,12.66140778
19.2250,12.76578173
19.2300,12.8737293
19.2350,12.98534697
19.2400,13.10062698
19.2450,13.21953846
19.2500,13.34206129
19.2550,13.46821581
19.2600,13.59788242
19.2650,13.73122481
19.2700,13.86813349
19.2750,14.00859744
19.2800,14.15258623
19.2850,14.29999114
19.2900,14.45059249
19.2950,14.60459241
19.3000,14.76172704
19.3050,14.92170997
19.3100,15.08475739
19.3150,15.25058819
19.3200,15.41908657
19.3250,15.59008901
19.3300,15.76349345
19.3350,15.93910407
19.3400,16.11687121
19.3450,16.29693445
19.3500,16.4789501
19.3550,16.66304029
19.3600,16.8491702
19.3650,17.03746225
19.3700,17.22770554
19.3750,17.41992574
19.3800,17.61413806
19.3850,17.81024699
19.3900,18.00823827
19.3950,18.20798053
19.4000,18.40987128
19.4050,18.61368016
19.4100,18.81932753
19.4150,19.02678256
19.4200,19.23585781
19.4250,19.44643723
19.4300,19.65854623
19.4350,19.87200403
19.4400,20.08688602
19.4450,20.30301
19.4500,20.5202693
19.4550,20.73863288
19.4600,20.95778695
19.4650,21.17793001
19.4700,21.39887128
19.4750,21.62067555
19.4800,21.84331864
19.4850,22.06675047
19.4900,22.29104783
19.4950,22.51620657
19.5000,22.7421941
19.5050,22.96924067
19.5100,23.19715424
19.5150,23.42609654
19.5200,23.6560935
19.5250,23.88719204
19.5300,24.11935551
19.5350,24.35263554
19.5400,24.5871486
19.5450,24.82299801
19.5500,25.05976912
19.5550,25.29790232
19.5600,25.53710048
19.5650,25.77735881
19.5700,26.01857364
19.5750,26.26083498
19.5800,26.50392723
19.5850,26.74775289
19.5900,26.99230257
19.5950,27.23752357
19.6000,27.48323749
19.6050,27.72953433
19.6100,27.97607043
19.6150,28.22284135
19.6200,28.469841
19.6250,28.71687237
19.6300,28.96386816
19.6350,29.21071447
19.6400,29.45734335
19.6450,29.70348297
19.6500,29.9492153
19.6550,30.19454186
19.6600,30.43908043
19.6650,30.6826861
19.6700,30.92519197
19.6750,31.16667484
19.6800,31.40700865
19.6850,31.64616588
19.6900,31.88411391
19.6950,32.12065064
19.7000,32.35580566
19.7050,32.58948952
19.7100,32.82178539
19.7150,33.05253839
19.7200,33.28185901
19.7250,33.50973985
19.7300,33.73628388
19.7350,33.96137942
19.7400,34.18487851
19.7450,34.40695132
19.7500,34.62756966
19.7550,34.84663442
19.7600,35.06428507
19.7650,35.28048809
19.7700,35.49545816
19.7750,35.7089507
19.7800,35.92117127
19.7850,36.13220021
19.7900,36.34216803
19.7950,36.55108476
19.8000,36.75899135
19.8050,36.96577856
19.8100,37.17175711
19.8150,37.37677857
19.8200,37.58101969
19.8250,37.78447029
19.8300,37.98721586
19.8350,38.18933301
19.8400,38.3909213
19.8450,38.59191286
19.8500,38.79275533
19.8550,38.99314655
19.8600,39.19331341
19.8650,39.39321328
19.8700,39.59306684
19.8750,39.79285697
19.8800,39.99259419
19.8850,40.19234666
19.8900,40.39205001
19.8950,40.59156573
19.9000,40.79111027
19.9050,40.99059314
19.9100,41.19012883
19.9150,41.38978882
19.9200,41.58934039
19.9250,41.78892611
19.9300,41.98837365
19.9350,42.18775502
19.9400,42.38700214
19.9450,42.58584077
19.9500,42.78431579
19.9550,42.98229343
19.9600,43.17987086
19.9650,43.37722153
19.9700,43.5742322
19.9750,43.77080644
19.9800,43.96700722
19.9850,44.16289554
19.9900,44.35829963
19.9950,44.55318173
20.0000,44.74724735
20.0050,44.94067283
20.0100,45.13327765
20.0150,45.32514224
20.0200,45.51623011
20.0250,45.70647083
20.0300,45.89565356
20.0350,46.08417292
20.0400,46.2718474
20.0450,46.45861028
20.0500,46.64440084
20.0550,46.82934035
20.0600,47.01332243
20.0650,47.19635364
20.0700,47.37831599
20.0750,47.55937656
20.0800,47.73946932
20.0850,47.91843104
20.0900,48.09620312
20.0950,48.27264841
20.1000,48.44769743
20.1050,48.62140645
20.1100,48.79362335
20.1150,48.96448358
20.1200,49.13381291
20.1250,49.30156512
20.1300,49.46772717
20.1350,49.63229637
20.1400,49.79500625
20.1450,49.95603296
20.1500,50.11513346
20.1550,50.27239756
20.1600,50.42790958
20.1650,50.58156762
20.1700,50.7333065
20.1750,50.88306057
20.1800,51.03071331
20.1850,51.17638732
20.1900,51.31996308
20.1950,51.46136155
20.2000,51.60061435
20.2050,51.73752409
20.2100,51.87212055
20.2150,52.00437793
20.2200,52.13426467
20.2250,52.2618544
20.2300,52.38717377
20.2350,52.5103145
20.2400,52.63121102
20.2450,52.75014846
20.2500,52.86717884
20.2550,52.98252134
20.2600,53.09607359
20.2650,53.20773516
20.2700,53.31740021
20.2750,53.42499482
20.2800,53.53061333
20.2850,53.63419807
20.2900,53.7359173
20.2950,53.83599077
20.3000,53.93457795
20.3050,54.03157449
20.3100,54.12700377
20.3150,54.22076791
20.3200,54.31250894
20.3250,54.40203185
20.3300,54.48921512
20.3350,54.57379728
20.3400,54.65611459
20.3450,54.73597019
20.3500,54.81329791
20.3550,54.88806375
20.3600,54.96044939
20.3650,55.030371
20.3700,55.09769948
20.3750,55.16256983
20.3800,55.22472826
20.3850,55.28431309
20.3900,55.34130845
20.3950,55.39568662
20.4000,55.44736591
20.4050,55.49621966
20.4100,55.54249755
20.4150,55.58613087
20.4200,55.62720091
20.4250,55.66564167
20.4300,55.70140338
20.4350,55.73439459
20.4400,55.76474362
20.4450,55.7924943
20.4500,55.81787624
20.4550,55.84047318
20.4600,55.86019129
20.4650,55.87677469
20.4700,55.89013633
20.4750,55.90016558
20.4800,55.9070625
20.4850,55.91066659
20.4900,55.91116729
20.4950,55.90863418
20.5000,55.90303229
20.5050,55.89456481
20.5100,55.88303738
20.5150,55.86822936
20.5200,55.85022102
20.5250,55.82886733
20.5300,55.80415537
20.5350,55.77589185
20.5400,55.74424707
20.5450,55.70873344
20.5500,55.66945681
20.5550,55.62621878
20.5600,55.57899949
20.5650,55.52789896
20.5700,55.47309516
20.5750,55.41462932
20.5800,55.35245372
20.5850,55.28654533
20.5900,55.21691711
20.5950,55.14337111
20.6000,55.06587838
20.6050,54.98441479
20.6100,54.89903405
20.6150,54.80956387
20.6200,54.71631731
20.6250,54.61936047
20.6300,54.51886763
20.6350,54.41490636
20.6400,54.30753196
20.6450,54.19705253
20.6500,54.0835246
20.6550,53.96714747
20.6600,53.84810115
20.6650,53.72662502
20.6700,53.60270404
20.6750,53.47647703
20.6800,53.34800064
20.6850,53.21739981
20.6900,53.08502032
20.6950,52.95104511
20.7000,52.81562968
20.7050,52.67935064
20.7100,52.54220008
20.7150,52.40430632
20.7200,52.26588068
20.7250,52.12701835
20.7300,51.98808844
20.7350,51.84905624
20.7400,51.70987333
20.7450,51.57068621
20.7500,51.43109292
20.7550,51.29148438
20.7600,51.15170523
20.7650,51.01181694
20.7700,50.87208469
20.7750,50.73253
20.7800,50.59303603
20.7850,50.45344271
20.7900,50.31362858
20.7950,50.17347352
20.8000,50.03279869
20.8050,49.891502
20.8100,49.74964406
20.8150,49.60715494
20.8200,49.46388266
20.8250,49.31978062
20.8300,49.17487702
20.8350,49.02912728
20.8400,48.88219777
20.8450,48.73438618
20.8500,48.58542277
20.8550,48.43548995
20.8600,48.28478085
20.8650,48.13323588
20.8700,47.98083525
20.8750,47.82762641
20.8800,47.67358625
20.8850,47.51872795
20.8900,47.36286919
20.8950,47.20604834
20.9000,47.04848829
20.9050,46.89023993
20.9100,46.73122996
20.9150,46.57162498
20.9200,46.41138444
20.9250,46.25061818
20.9300,46.08941234
20.9350,45.92772305
20.9400,45.76565952
20.9450,45.6031828
20.9500,45.44023773
20.9550,45.27696064
20.9600,45.11311092
20.9650,44.94868058
20.9700,44.78388358
20.9750,44.61855414
20.9800,44.45306719
20.9850,44.28733697
20.9900,44.12130499
20.9950,43.95489871
21.0000,43.78843764
21.0050,43.62192764
21.0100,43.45528644
21.0150,43.28856247
21.0200,43.1218498
21.0250,42.95533175
21.0300,42.78892331
21.0350,42.62304979
21.0400,42.45772851
21.0450,42.2929219
21.0500,42.12906402
21.0550,41.96605118
21.0600,41.80403923
21.0650,41.643131
21.0700,41.48337613
21.0750,41.32480278
21.0800,41.16758786
21.0850,41.0117646
21.0900,40.85752757
21.0950,40.70504704
21.1000,40.5542456
21.1050,40.4051923
21.1100,40.25775448
21.1150,40.11202854
21.1200,39.96786981
21.1250,39.82507989
21.1300,39.68364216
21.1350,39.54346398
21.1400,39.40485675
21.1450,39.26753394
21.1500,39.13144302
21.1550,38.99645724
21.1600,38.86246461
21.1650,38.729447
21.1700,38.59739089
21.1750,38.46622763
21.1800,38.3358663
21.1850,38.20613203
21.1900,38.07705511
21.1950,37.94870445
21.2000,37.8208175
21.2050,37.69352292
21.2100,37.5667821
21.2150,37.44055054
21.2200,37.3147778
21.2250,37.18959217
21.2300,37.06502602
21.2350,36.94100113
21.2400,36.81751559
21.2450,36.69445561
21.2500,36.57192725
21.2550,36.44988116
21.2600,36.32832665
21.2650,36.2073104
21.2700,36.08669094
21.2750,35.96658004
21.2800,35.84694033
21.2850,35.7278369
21.2900,35.60926133
21.2950,35.4913089
21.3000,35.37406243
21.3050,35.25724869
21.3100,35.14104341
21.3150,35.02567227
21.3200,34.91104941
21.3250,34.79728937
21.3300,34.6843608
21.3350,34.57217655
21.3400,34.46071064
21.3450,34.35033957
21.3500,34.24089989
21.3550,34.1324907
21.3600,34.02538013
21.3650,33.91957641
21.3700,33.81519214
21.3750,33.71225538
21.3800,33.6108249
21.3850,33.51086899
21.3900,33.41252667
21.3950,33.31565447
21.4000,33.22042129
21.4050,33.12670663
21.4100,33.03465683
21.4150,32.9439496
21.4200,32.85469576
21.4250,32.76708936
21.4300,32.68100753
21.4350,32.59645641
21.4400,32.51316083
21.4450,32.43110768
21.4500,32.35030131
21.4550,32.27054874
21.4600,32.19180715
21.4650,32.11382524
21.4700,32.0365656
21.4750,31.95976779
21.4800,31.88338818
21.4850,31.80721481
21.4900,31.73113771
21.4950,31.65491489
21.5000,31.57842364
21.5050,31.50139806
21.5100,31.42363732
21.5150,31.34486313
21.5200,31.26494906
21.5250,31.18357348
21.5300,31.10052081
21.5350,31.01566809
21.5400,30.92873722
21.5450,30.83961216
21.5500,30.74816212
21.5550,30.65417189
21.5600,30.55747473
21.5650,30.45802346
21.5700,30.35575517
21.5750,30.25070071
21.5800,30.14278075
21.5850,30.03208562
21.5900,29.91862682
21.5950,29.80257453
21.6000,29.68379521
21.6050,29.5625119
21.6100,29.43882581
21.6150,29.31278177
21.6200,29.18441551
21.6250,29.05397423
21.6300,28.92174242
21.6350,28.78778258
21.6400,28.65245244
21.6450,28.51571416
21.6500,28.37784363
21.6550,28.23919762
21.6600,28.10009846
21.6650,27.96069579
21.6700,27.8213508
21.6750,27.68226684
21.6800,27.54384767
21.6850,27.40621992
21.6900,27.26958925
21.6950,27.13433683
21.7000,27.00074961
21.7050,26.86886424
21.7100,26.73895599
21.7150,26.61128062
21.7200,26.48591069
21.7250,26.36280374
21.7300,26.24195594
21.7350,26.1234724
21.7400,26.00741587
21.7450,25.8937014
21.7500,25.78229035
21.7550,25.67312856
21.7600,25.566169
21.7650,25.46134787
21.7700,25.3585672
21.7750,25.25768974
21.7800,25.15862116
21.7850,25.06151054
21.7900,24.9662535
21.7950,24.87254913
21.8000,24.78055114
21.8050,24.69005048
21.8100,24.60095205
21.8150,24.51338244
21.8200,24.42721204
21.8250,24.34258806
21.8300,24.25938414
21.8350,24.17758867
21.8400,24.09709557
21.8450,24.01799192
21.8500,23.94012922
21.8550,23.86359948
21.8600,23.78856733
21.8650,23.71486108
21.8700,23.64272439
21.8750,23.57210277
21.8800,23.50295988
21.8850,23.43533107
21.8900,23.36934793
21.8950,23.30508668
21.9000,23.24276932
21.9050,23.18253178
21.9100,23.12458547
21.9150,23.06897934
21.9200,23.01602641
21.9250,22.96560249
21.9300,22.91780208
21.9350,22.87304043
21.9400,22.83122324
21.9450,22.79247549
21.9500,22.75680959
21.9550,22.72430189
21.9600,22.69471027
21.9650,22.66849861
21.9700,22.64534663
21.9750,22.62544957
21.9800,22.60870824
21.9850,22.59517158
21.9900,22.58477436
21.9950,22.57737421
22.0000,22.57290615
22.0050,22.57127352
22.0100,22.57231579
22.0150,22.57617558
22.0200,22.58280633
22.0250,22.59209428
22.0300,22.60387567
22.0350,22.61805903
22.0400,22.63459247
22.0450,22.65334494
22.0500,22.67424397
22.0550,22.69715859
22.0600,22.72206792
22.0650,22.74875298
22.0700,22.77713432
22.0750,22.80725229
22.0800,22.83902354
22.0850,22.87210306
22.0900,22.90652048
22.0950,22.94247639
22.1000,22.97973393
22.1050,23.0182035
22.1100,23.05802882
22.1150,23.09903207
22.1200,23.14128244
22.1250,23.18463435
22.1300,23.22917245
22.1350,23.2748224
22.1400,23.32173467
22.1450,23.36968004
22.1500,23.41895966
22.1550,23.46963652
22.1600,23.52176548
22.1650,23.5753554
22.1700,23.63040212
22.1750,23.6870784
22.1800,23.74544709
22.1850,23.80571814
22.1900,23.86786511
22.1950,23.93183016
22.2000,23.99768698
22.2050,24.06559183
22.2100,24.13553003
22.2150,24.20741384
22.2200,24.28124979
22.2250,24.35727547
22.2300,24.43545526
22.2350,24.51544413
22.2400,24.59751173
22.2450,24.68164842
22.2500,24.76788759
22.2550,24.85614071
22.2600,24.94648559
22.2650,25.03854941
22.2700,25.13252308
22.2750,25.22822921
22.2800,25.32578119
22.2850,25.42513598
22.2900,25.52626745
22.2950,25.62909167
22.3000,25.73357649
22.3050,25.83981931
22.3100,25.94762459
22.3150,26.05689569
22.3200,26.16756109
22.3250,26.2797083
22.3300,26.39325752
22.3350,26.50817055
22.3400,26.62446631
22.3450,26.74214091
22.3500,26.86103273
22.3550,26.98110898
22.3600,27.1022623
22.3650,27.22445735
22.3700,27.34762217
22.3750,27.47159898
22.3800,27.59640973
22.3850,27.72208528
22.3900,27.84864669
22.3950,27.97597296
22.4000,28.10399502
22.4050,28.23281964
22.4100,28.36244708
22.4150,28.49288749
22.4200,28.62406547
22.4250,28.7558387
22.4300,28.88819775
22.4350,29.02130649
22.4400,29.15506726
22.4450,29.28963383
22.4500,29.42471261
22.4550,29.56044009
22.4600,29.69668803
22.4650,29.83370683
22.4700,29.971533
22.4750,30.11005639
22.4800,30.24965354
22.4850,30.39021093
22.4900,30.53179402
22.4950,30.6747313
22.5000,30.81896374
22.5050,30.96434214
22.5100,31.11100859
22.5150,31.25918352
22.5200,31.40860586
22.5250,31.55942419
22.5300,31.71158944
22.5350,31.86534146
22.5400,32.0206576
22.5450,32.17738434
22.5500,32.33555237
22.5550,32.49525572
22.5600,32.65649409
22.5650,32.81930578
22.5700,32.98362127
22.5750,33.14945513
22.5800,33.31676094
22.5850,33.48574824
22.5900,33.65637437
22.5950,33.82885115
22.6000,34.00318944
22.6050,34.17954122
22.6100,34.35798303
22.6150,34.53847444
22.6200,34.72100763
22.6250,34.90546251
22.6300,35.09187007
22.6350,35.28009696
22.6400,35.47000493
22.6450,35.66182463
22.6500,35.85551752
22.6550,36.0511499
22.6600,36.24860251
22.6650,36.44791145
22.6700,36.6489721
22.6750,36.85178287
22.6800,37.05625572
22.6850,37.26239692
22.6900,37.47021447
22.6950,37.67985716
22.7000,37.89156466
22.7050,38.1050648
22.7100,38.32001197
22.7150,38.53651221
22.7200,38.75455649
22.7250,38.97415895
22.7300,39.1952287
22.7350,39.41752641
22.7400,39.64093604
22.7450,39.86553409
22.7500,40.09141194
22.7550,40.31847709
22.7600,40.54650626
22.7650,40.77530785
22.7700,41.00467224
22.7750,41.2346411
22.7800,41.46474143
22.7850,41.69492148
22.7900,41.92508249
22.7950,42.15511539
22.8000,42.38514408
22.8050,42.61550568
22.8100,42.84598038
22.8150,43.07664161
22.8200,43.30767648
22.8250,43.53899347
22.8300,43.7706475
22.8350,44.00286453
22.8400,44.23556585
22.8450,44.46883852
22.8500,44.70268837
22.8550,44.9369192
22.8600,45.17165686
22.8650,45.40696803
22.8700,45.64283492
22.8750,45.87924144
22.8800,46.11606366
22.8850,46.35294493
22.8900,46.58963355
22.8950,46.82616175
22.9000,47.062236
22.9050,47.29793515
22.9100,47.53304144
22.9150,47.76761448
22.9200,48.00181279
22.9250,48.23566597
22.9300,48.4690757
22.9350,48.70185911
22.9400,48.9339206
22.9450,49.16513067
22.9500,49.39553573
22.9550,49.62494277
22.9600,49.85334546
22.9650,50.08053598
22.9700,50.30657319
22.9750,50.53143425
22.9800,50.75499701
22.9850,50.97690265
22.9900,51.19686465
22.9950,51.41451335
23.0000,51.6291972
23.0050,51.8408783
23.0100,52.04970245
23.0150,52.25581075
23.0200,52.45929116
23.0250,52.66019957
23.0300,52.85822092
23.0350,53.05345209
23.0400,53.24573437
23.0450,53.43499987
23.0500,53.62084296
23.0550,53.80301838
23.0600,53.98152067
23.0650,54.15619695
23.0700,54.32713742
23.0750,54.49407956
23.0800,54.65738026
23.0850,54.81689779
23.0900,54.97267392
23.0950,55.12421662
23.1000,55.27110283
23.1050,55.41304383
23.1100,55.54996164
23.1150,55.68165748
23.1200,55.80815762
23.1250,55.92905584
23.1300,56.04390315
23.1350,56.15214355
23.1400,56.25358753
23.1450,56.34795847
23.1500,56.4349947
23.1550,56.51476582
23.1600,56.58693609
23.1650,56.65115136
23.1700,56.70791187
23.1750,56.75714284
23.1800,56.79906857
23.1850,56.83374451
23.1900,56.86126744
23.1950,56.88134762
23.2000,56.89428366
23.2050,56.9000844
23.2100,56.898662
23.2150,56.8900416
23.2200,56.87393773
23.2250,56.85059648
23.2300,56.82035696
23.2350,56.78341597
23.2400,56.7397995
23.2450,56.68938154
23.2500,56.63207943
23.2550,56.56813367
23.2600,56.49741877
23.2650,56.42031654
23.2700,56.33710148
23.2750,56.24784845
23.2800,56.15285788
23.2850,56.05229701
23.2900,55.94632191
23.2950,55.83543174
23.3000,55.72012404
23.3050,55.60054775
23.3100,55.47682448
23.3150,55.34870914
23.3200,55.21612433
23.3250,55.07908595
23.3300,54.93767487
23.3350,54.79194239
23.3400,54.64178151
23.3450,54.48714035
23.3500,54.32812779
23.3550,54.16491862
23.3600,53.99763247
23.3650,53.82625271
23.3700,53.65068785
23.3750,53.47096831
23.3800,53.28674194
23.3850,53.09829736
23.3900,52.90582476
23.3950,52.70974104
23.4000,52.51042364
23.4050,52.30761871
23.4100,52.10152809
23.4150,51.89250639
23.4200,51.6806931
23.4250,51.4663692
23.4300,51.24972458
23.4350,51.03078596
23.4400,50.80968218
23.4450,50.58666826
23.4500,50.3618128
23.4550,50.13492348
23.4600,49.90600336
23.4650,49.67535839
23.4700,49.4425818
23.4750,49.20769045
23.4800,48.97043775
23.4850,48.73098052
23.4900,48.48967952
23.4950,48.24653582
23.5000,48.00146654
23.5050,47.75430382
23.5100,47.50542234
23.5150,47.25488441
23.5200,47.0027379
23.5250,46.74904145
23.5300,46.49377147
23.5350,46.23727645
23.5400,45.97961527
23.5450,45.72082303
23.5500,45.46130796
23.5550,45.20097944
23.5600,44.94005833
23.5650,44.67831288
23.5700,44.41538453
23.5750,44.15130546
23.5800,43.88591299
23.5850,43.6193969
23.5900,43.35164375
23.5950,43.08265016
23.6000,42.81203717
23.6050,42.54005178
23.6100,42.26680229
23.6150,41.99232701
23.6200,41.71675041
23.6250,41.44018338
23.6300,41.162961
23.6350,40.88493099
23.6400,40.60635687
23.6450,40.32709297
23.6500,40.04732392
23.6550,39.76709722
23.6600,39.48627198
23.6650,39.20510569
23.6700,38.92366277
23.6750,38.64210773
23.6800,38.36037274
23.6850,38.07855839
23.6900,37.79655438
23.6950,37.51435406
23.7000,37.23190456
23.7050,36.94951353
23.7100,36.6671884
23.7150,36.38491135
23.7200,36.10274799
23.7250,35.82053658
23.7300,35.53850677
23.7350,35.25678639
23.7400,34.97553686
23.7450,34.69448285
23.7500,34.41385287
23.7550,34.13400277
23.7600,33.85509628
23.7650,33.57698698
23.7700,33.29982678
23.7750,33.02385084
23.7800,32.74901033
23.7850,32.47535244
23.7900,32.20283461
23.7950,31.93155927
23.8000,31.6616161
23.8050,31.39304417
23.8100,31.12588726
23.8150,30.86023352
23.8200,30.5962108
23.8250,30.3337112
23.8300,30.07284193
23.8350,29.81336545
23.8400,29.5553395
23.8450,29.29877542
23.8500,29.04361472
23.8550,28.78977749
23.8600,28.53737445
23.8650,28.28648228
23.8700,28.03735114
23.8750,27.78981375
23.8800,27.5438848
23.8850,27.2995744
23.8900,27.05704023
23.8950,26.81629607
23.9000,26.57766859
23.9050,26.34106906
23.9100,26.10664329
23.9150,25.87461273
23.9200,25.64485314
23.9250,25.41743257
23.9300,25.19217296
23.9350,24.9694985
23.9400,24.74932467
23.9450,24.53187038
23.9500,24.31725859
23.9550,24.10546042
23.9600,23.8965586
23.9650,23.69067253
23.9700,23.48781707
23.9750,23.28799006
23.9800,23.0915141
23.9850,22.89822058
23.9900,22.70818902
23.9950,22.52136094
24.0000,22.33774886
24.0050,22.15732017
24.0100,21.98023047
24.0150,21.80637439
24.0200,21.63569478
24.0250,21.46826293
24.0300,21.3039668
24.0350,21.14275688
24.0400,20.98462264
24.0450,20.82963009
24.0500,20.67759324
24.0550,20.52825988
24.0600,20.38151697
24.0650,20.23729923
24.0700,20.09538553
24.0750,19.95556343
24.0800,19.81761589
24.0850,19.68130015
24.0900,19.54654192
24.0950,19.41303147
24.1000,19.28048931
24.1050,19.1487471
24.1100,19.01760216
24.1150,18.8867341
24.1200,18.75610805
24.1250,18.62545609
24.1300,18.49489454
24.1350,18.36432845
24.1400,18.23356441
24.1450,18.10271507
24.1500,17.97168161
24.1550,17.84063072
24.1600,17.70936774
24.1650,17.5779621
24.1700,17.44629705
24.1750,17.3145676
24.1800,17.18271439
24.1850,17.05087872
24.1900,16.91919063
24.1950,16.78763563
24.2000,16.65611518
24.2050,16.5249628
24.2100,16.39394648
24.2150,16.26315085
24.2200,16.13271186
24.2250,16.00257084
24.2300,15.87284525
24.2350,15.74331361
24.2400,15.61414794
24.2450,15.48530838
24.2500,15.35677365
24.2550,15.2284873
24.2600,15.10069522
24.2650,14.97321537
24.2700,14.84611096
24.2750,14.71946985
24.2800,14.59324398
24.2850,14.46757699
24.2900,14.34244356
24.2950,14.21803833
24.3000,14.09436441
24.3050,13.971394
24.3100,13.84895783
24.3150,13.72721092
24.3200,13.60609384
24.3250,13.48575925
24.3300,13.36611614
24.3350,13.2472305
24.3400,13.12908204
24.3450,13.01173015
24.3500,12.89520704
24.3550,12.779541
24.3600,12.66458615
24.3650,12.55025129
24.3700,12.43656016
24.3750,12.3233913
24.3800,12.21102666
24.3850,12.09934829
24.3900,11.98839412
24.3950,11.87791479
24.4000,11.76811011
24.4050,11.65902096
24.4100,11.55079661
24.4150,11.44340387
24.4200,11.33695254
24.4250,11.23156266
24.4300,11.12723791
24.4350,11.02389884
24.4400,10.92180985
24.4450,10.82098727
24.4500,10.72145649
24.4550,10.62314511
24.4600,10.52611315
24.4650,10.43029652
24.4700,10.3360309
24.4750,10.24333325
24.4800,10.15242407
24.4850,10.06325925
24.4900,9.976006389
24.4950,9.890797079
24.5000,9.807849813
24.5050,9.727163003
24.5100,9.649041386
24.5150,9.573653443
24.5200,9.500975509
24.5250,9.431302271
24.5300,9.364781525
24.5350,9.301580581
24.5400,9.241731741
24.5450,9.185205622
24.5500,9.132133627
24.5550,9.082521952
24.5600,9.036480964
24.5650,8.99393134
24.5700,8.954863997
24.5750,8.918994584
24.5800,8.886176566
24.5850,8.85612844
24.5900,8.828892473
24.5950,8.804085714
24.6000,8.781563859
24.6050,8.76127429
24.6100,8.742991856
24.6150,8.726748756
24.6200,8.712452369
24.6250,8.699801712
24.6300,8.68880983
24.6350,8.679407324
24.6400,8.671372496
24.6450,8.664657228
24.6500,8.65916238
24.6550,8.65486
24.6600,8.651781477
24.6650,8.649880578
24.6700,8.649076864
24.6750,8.649282386
24.6800,8.650365381
24.6850,8.652468671
24.6900,8.655370867
24.6950,8.659268365
24.7000,8.663981643
24.7050,8.669371419
24.7100,8.675407864
24.7150,8.681750892
24.7200,8.688431633
24.7250,8.695440214
24.7300,8.702507765
24.7350,8.709966267
24.7400,8.717570596
24.7450,8.72530685
24.7500,8.733231562
24.7550,8.741377336
24.7600,8.749645727
24.7650,8.758398974
24.7700,8.767367015
24.7750,8.776665991
24.7800,8.786275186
24.7850,8.796240398
24.7900,8.806658507
24.7950,8.81757476
24.8000,8.828995943
24.8050,8.84094433
24.8100,8.853415685
24.8150,8.866380214
24.8200,8.879882654
24.8250,8.894061736
24.8300,8.908761623
24.8350,8.923970198
24.8400,8.939685154
24.8450,8.955842594
24.8500,8.972336556
24.8550,8.989072298
24.8600,9.005790637
24.8650,9.022631316
24.8700,9.039386893
24.8750,9.05616739
24.8800,9.072975041
24.8850,9.08968915
24.8900,9.106316641
24.8950,9.122764624
24.9000,9.139072761
24.9050,9.155176478
24.9100,9.171141757
24.9150,9.186685147
24.9200,9.201713083
24.9250,9.216366955
24.9300,9.230694927
24.9350,9.24473682
24.9400,9.258632374
24.9450,9.272370028
24.9500,9.286036344
24.9550,9.299716926
24.9600,9.313334672
24.9650,9.326991029
24.9700,9.340803643
24.9750,9.354827269
24.9800,9.369032768
24.9850,9.38339183
24.9900,9.397941782
24.9950,9.41277968
25.0000,9.427993544
25.0050,9.443806006
25.0100,9.460203273
25.0150,9.477653558
25.0200,9.495909711
25.0250,9.515086346
25.0300,9.535152125
25.0350,9.556077368
25.0400,9.577831269
25.0450,9.600508475
25.0500,9.624061514
25.0550,9.648773851
25.0600,9.674825439
25.0650,9.702104759
25.0700,9.73090626
25.0750,9.761207281
25.0800,9.793330054
25.0850,9.827394038
25.0900,9.863516852
25.0950,9.901773595
25.1000,9.942351019
25.1050,9.985252788
25.1100,10.0304985
25.1150,10.07816822
25.1200,10.128329
25.1250,10.18078135
25.1300,10.23566882
25.1350,10.29309287
25.1400,10.35279837
25.1450,10.4149804
25.1500,10.47971953
25.1550,10.54693644
25.1600,10.61658405
25.1650,10.68837257
25.1700,10.76227503
25.1750,10.83829324
25.1800,10.91622564
25.1850,10.99619437
25.1900,11.07812142
25.1950,11.16204368
25.2000,11.24796228
25.2050,11.33587331
25.2100,11.42577991
25.2150,11.51776436
25.2200,11.6118319
25.2250,11.70790843
25.2300,11.80592638
25.2350,11.90579761
25.2400,12.00739684
25.2450,12.11073099
25.2500,12.21574938
25.2550,12.32244513
25.2600,12.43093447
25.2650,12.54120587
25.2700,12.65328463
25.2750,12.76728655
25.2800,12.88343635
25.2850,13.00173275
25.2900,13.12230691
25.2950,13.24544469
25.3000,13.37153457
25.3050,13.50081195
25.3100,13.63372608
25.3150,13.77062939
25.3200,13.91213165
25.3250,14.05879715
25.3300,14.21123912
25.3350,14.37014951
25.3400,14.53632183
25.3450,14.71036023
25.3500,14.89306007
25.3550,15.08519593
25.3600,15.28726185
25.3650,15.50015392
25.3700,15.72420331
25.3750,15.96000227
25.3800,16.20779891
25.3850,16.467903
25.3900,16.74033309
25.3950,16.85583041
25.4000,16.9823102
25.4050,17.11925248
25.4100,17.2659285
25.4150,17.4214357
25.4200,17.58472833
25.4250,17.75464409
25.4300,17.92992702
25.4350,18.1092467
25.4400,18.29121289
25.4450,18.47438676
25.4500,18.65729119
25.4550,18.83842186
25.4600,19.01625985
25.4650,19.18928601
25.4700,19.35599739
25.4750,19.51492579
25.4800,19.66465902
25.4850,19.80386612
25.4900,19.93132747
25.4950,20.04597026
25.5000,20.14690996
25.5050,20.23349962
25.5100,20.30538816
25.5150,20.36258712
25.5200,20.40554559
25.5250,20.43523227
25.5300,20.45322478
25.5350,20.46180676
