type,name,time_units,begin_time,frequency,count,units
signal_4d,"Noraxon MyoMotion-Segments-Forearm RT-Orientation","s",0.0000,200,5108,""

time,x,y,z,w
0.0000,0.09620631437,-0.6399233388,-0.7497268617,0.1383911068
0.0050,0.09624983781,-0.6398503223,-0.7497699461,0.1384650195
0.0100,0.09629335985,-0.6397772966,-0.7498130197,0.1385389301
0.0150,0.09633688049,-0.6397042616,-0.7498560822,0.1386128387
0.0200,0.09638145922,-0.639625017,-0.749903366,0.1386917215
0.0250,0.09642642508,-0.6395399224,-0.7499547471,0.1387750319
0.0300,0.09647111146,-0.6394494021,-0.7500100506,0.1388622008
0.0350,0.09651488571,-0.6393539231,-0.7500690601,0.1389526645
0.0400,0.09655716593,-0.6392539817,-0.7501315243,0.13904588
0.0450,0.0965974265,-0.6391500969,-0.7501971615,0.1391413303
0.0500,0.09663520151,-0.6390428077,-0.7502656603,0.1392385244
0.0550,0.09667008983,-0.6389326711,-0.7503366817,0.1393370002
0.0600,0.09670176127,-0.6388202582,-0.75040986,0.1394363261
0.0650,0.0967299612,-0.6387061508,-0.7504848078,0.1395360913
0.0700,0.0967545136,-0.638590938,-0.7505611207,0.1396358909
0.0750,0.09677532727,-0.6384752155,-0.7506383797,0.1397353148
0.0800,0.09679240395,-0.6383595788,-0.7507161556,0.1398339463
0.0850,0.09680584019,-0.6382446146,-0.7507940164,0.1399313627
0.0900,0.09681581975,-0.6381308972,-0.7508715321,0.1400271309
0.0950,0.09682259685,-0.638018989,-0.750948277,0.140120804
0.1000,0.09682647461,-0.6379094403,-0.751023832,0.1402119234
0.1050,0.09682778994,-0.6378027907,-0.7510977844,0.140300027
0.1100,0.09682690643,-0.6376995696,-0.7511697255,0.1403846591
0.1150,0.09682420287,-0.6376002919,-0.7512392558,0.1404653768
0.1200,0.09682005227,-0.6375054484,-0.7513059941,0.1405417518
0.1250,0.09681480272,-0.6374154983,-0.7513695869,0.1406133724
0.1300,0.09680876864,-0.637330862,-0.7514297126,0.1406798553
0.1350,0.0968022286,-0.6372519134,-0.7514860849,0.1407408668
0.1400,0.09679542755,-0.6371789655,-0.7515384599,0.1407961449
0.1450,0.09678858246,-0.6371122552,-0.7515866454,0.1408455148
0.1500,0.09678188704,-0.6370519303,-0.7516305097,0.1408888969
0.1550,0.09678139879,-0.6369254674,-0.7517198925,0.1409840883
0.1600,0.0967788228,-0.6368070699,-0.7518042105,0.1410710611
0.1650,0.0967742709,-0.636697033,-0.7518834217,0.1411486761
0.1700,0.09676744057,-0.6365958028,-0.7519571103,0.1412173875
0.1750,0.09675973426,-0.6365023396,-0.7520258018,0.1412781614
0.1800,0.0967506047,-0.636417094,-0.752088944,0.1413323153
0.1850,0.09674032513,-0.6363391722,-0.752147079,0.1413808295
0.1900,0.09673069492,-0.6362677195,-0.7522006591,0.1414239377
0.1950,0.09672125403,-0.6362030508,-0.7522493792,0.1414621812
0.2000,0.09671075213,-0.6361445566,-0.7522940019,0.1414951178
0.2050,0.09670000989,-0.636091034,-0.7523353026,0.1415234857
0.2100,0.09668817021,-0.6360441013,-0.7523719669,0.1415475971
0.2150,0.09667559594,-0.6360015324,-0.7524056242,0.1415685578
0.2200,0.09666207007,-0.6359637179,-0.7524358398,0.1415870778
0.2250,0.09664633661,-0.6359309516,-0.7524627344,0.1416020612
0.2300,0.09662975443,-0.6359036869,-0.7524857633,0.1416134441
0.2350,0.09661113137,-0.6358801242,-0.7525065193,0.1416216629
0.2400,0.0965908476,-0.6358605122,-0.7525245121,0.141627949
0.2450,0.09656912407,-0.6358453582,-0.7525394971,0.1416311761
0.2500,0.09654542472,-0.6358329062,-0.7525530569,0.141631186
0.2550,0.09652017581,-0.6358234637,-0.7525646568,0.1416291495
0.2600,0.09649316393,-0.6358166042,-0.7525748407,0.1416242361
0.2650,0.09646498954,-0.6358121469,-0.7525833679,0.1416181275
0.2700,0.09643775611,-0.6358104567,-0.7525897452,0.1416103732
0.2750,0.09640931112,-0.6358108303,-0.7525948745,0.1416008036
0.2800,0.09638110365,-0.6358128201,-0.7525988219,0.1415900914
0.2850,0.0963521098,-0.6358165024,-0.7526017922,0.1415775005
0.2900,0.09632193504,-0.6358227383,-0.7526028758,0.141564267
0.2950,0.09629160358,-0.6358305779,-0.7526027977,0.1415501053
0.3000,0.09625945495,-0.6358399817,-0.7526016491,0.1415358355
0.3050,0.09622625531,-0.6358513041,-0.7525991239,0.1415209721
0.3100,0.09619084717,-0.6358647496,-0.7525951916,0.1415055429
0.3150,0.09615474641,-0.6358799204,-0.7525898698,0.1414902095
0.3200,0.0961171357,-0.6358975652,-0.7525828456,0.1414738256
0.3250,0.09607735372,-0.6359163382,-0.7525748734,0.1414588731
0.3300,0.09603668608,-0.6359368569,-0.7525655303,0.1414439521
0.3350,0.09599529959,-0.6359590396,-0.7525550274,0.1414281909
0.3400,0.09595302463,-0.6359825832,-0.7525432674,0.1414135836
0.3450,0.09591010582,-0.636007432,-0.7525304356,0.1413992273
0.3500,0.0958656835,-0.6360349507,-0.7525158446,0.1413832234
0.3550,0.09582097564,-0.6360631504,-0.7525007898,0.141366795
0.3600,0.09577547115,-0.6360931526,-0.7524843031,0.1413503941
0.3650,0.09572935257,-0.6361248081,-0.7524666953,0.1413329119
0.3700,0.09568256222,-0.6361578927,-0.7524480358,0.1413150251
0.3750,0.09563612556,-0.6361922129,-0.7524282599,0.1412972516
0.3800,0.09558902968,-0.6362264688,-0.7524086753,0.1412791672
0.3850,0.09554162501,-0.6362619235,-0.7523881997,0.1412606088
0.3900,0.09549575566,-0.6362987787,-0.7523662666,0.1412424357
0.3950,0.09545300783,-0.6363365651,-0.7523432314,0.1412237987
0.4000,0.09541271061,-0.6363743159,-0.7523200518,0.1412044064
0.4050,0.09537510116,-0.6364136082,-0.7522950448,0.1411859586
0.4100,0.09534046061,-0.6364525456,-0.752269901,0.1411678074
0.4150,0.09531046893,-0.6364912717,-0.752244259,0.1411500991
0.4200,0.09528434939,-0.6365306369,-0.7522175546,0.1411325318
0.4250,0.09526124259,-0.6365707464,-0.7521899445,0.1411143788
0.4300,0.09524280339,-0.6366114223,-0.752161061,0.1410972845
0.4350,0.09522891592,-0.6366514794,-0.7521317381,0.1410822308
0.4400,0.09521835362,-0.6366917782,-0.752101477,0.1410688236
0.4450,0.09521194073,-0.6367325771,-0.7520698066,0.1410578515
0.4500,0.09520968872,-0.6367736409,-0.7520372134,0.1410477757
0.4550,0.09521075212,-0.6368139224,-0.7520046218,0.1410389654
0.4600,0.09521402487,-0.6368545763,-0.751971274,0.1410309937
0.4650,0.09521895457,-0.6368946155,-0.7519379675,0.1410244395
0.4700,0.09522439013,-0.6369347249,-0.7519040974,0.1410202116
0.4750,0.09523021844,-0.6369738537,-0.7518709385,0.1410163358
0.4800,0.09523505016,-0.6370129781,-0.7518377399,0.1410133464
0.4850,0.09523897711,-0.6370514182,-0.751805441,0.141009243
0.4900,0.09524021534,-0.6370896245,-0.7517735782,0.1410056696
0.4950,0.09523714671,-0.6371267282,-0.7517431463,0.1410023407
0.5000,0.09523135528,-0.6371644181,-0.751712414,0.1409997869
0.5050,0.09522043392,-0.6372014988,-0.7516826493,0.1409982753
0.5100,0.09520547088,-0.6372372436,-0.7516545616,0.1409965736
0.5150,0.0951868613,-0.6372739609,-0.7516259747,0.1409955829
0.5200,0.09516414366,-0.6373097727,-0.7515987047,0.1409944198
0.5250,0.09513812629,-0.6373433874,-0.7515734342,0.1409947387
0.5300,0.09510849015,-0.6373761313,-0.7515491334,0.14099625
0.5350,0.09507532242,-0.6374080241,-0.7515257882,0.1409988781
0.5400,0.09503887489,-0.6374383257,-0.7515040771,0.1410021818
0.5450,0.09499958862,-0.6374672552,-0.7514835758,0.1410071344
0.5500,0.09495809206,-0.6374951956,-0.7514638804,0.1410137324
0.5550,0.09491264037,-0.6375227752,-0.7514448984,0.1410208016
0.5600,0.09486423479,-0.6375505071,-0.7514260251,0.1410285669
0.5650,0.09481346553,-0.6375771618,-0.7514081918,0.1410372249
0.5700,0.09475852622,-0.6376026734,-0.7513919822,0.141045176
0.5750,0.09469975711,-0.637627369,-0.7513768961,0.141053374
0.5800,0.09463711007,-0.6376524259,-0.7513619207,0.1410619198
0.5850,0.09457189036,-0.6376777052,-0.7513471639,0.1410699864
0.5900,0.0945041322,-0.6377024918,-0.7513327365,0.1410801903
0.5950,0.09443423906,-0.6377276586,-0.7513182596,0.1410903281
0.6000,0.09436391884,-0.6377531659,-0.7513032568,0.141101972
0.6050,0.09429189192,-0.6377791509,-0.7512879591,0.1411141253
0.6100,0.09421876731,-0.6378052604,-0.7512724236,0.1411276701
0.6150,0.09414441794,-0.6378316792,-0.7512563423,0.1411434934
0.6200,0.09406985776,-0.6378584972,-0.7512399143,0.1411594509
0.6250,0.09399342024,-0.6378869907,-0.7512221214,0.1411763021
0.6300,0.09391563343,-0.6379158422,-0.7512039345,0.1411944786
0.6350,0.0938358693,-0.6379454197,-0.7511848925,0.1412151846
0.6400,0.09375554591,-0.6379751567,-0.751165576,0.1412369445
0.6450,0.09367455381,-0.6380056404,-0.7511454257,0.141260151
0.6500,0.09359270772,-0.6380365351,-0.7511245702,0.1412857564
0.6550,0.09351003472,-0.6380683164,-0.7511026873,0.1413133052
0.6600,0.09342809511,-0.6381010695,-0.751079489,0.1413429068
0.6650,0.09334661914,-0.6381332795,-0.7510559626,0.1413763321
0.6700,0.09326721922,-0.6381654005,-0.7510319216,0.1414114571
0.6750,0.09318923606,-0.6381977025,-0.7510071961,0.1414484008
0.6800,0.09311441734,-0.6382302399,-0.7509812823,0.1414884437
0.6850,0.09304233149,-0.6382636252,-0.7509540968,0.1415295509
0.6900,0.09297406569,-0.6382972868,-0.7509256013,0.1415737903
0.6950,0.09290992963,-0.6383304382,-0.7508965119,0.1416207084
0.7000,0.09285090379,-0.6383634925,-0.7508663195,0.1416705026
0.7050,0.09279673651,-0.6383959433,-0.750835519,0.1417229998
0.7100,0.09274781702,-0.6384285036,-0.7508033649,0.1417786849
0.7150,0.0927039922,-0.6384603912,-0.7507708875,0.1418357258
0.7200,0.09266546156,-0.6384924608,-0.7507370895,0.1418954269
0.7250,0.09263331671,-0.6385247268,-0.7507015035,0.1419594821
0.7300,0.09260791227,-0.6385568913,-0.7506646544,0.1420262222
0.7350,0.09258800191,-0.6385900083,-0.750625981,0.1420946862
0.7400,0.09257509397,-0.638623505,-0.7505858612,0.1421644674
0.7450,0.09256795256,-0.638657442,-0.7505442305,0.1422364371
0.7500,0.09256653167,-0.6386923096,-0.7505005563,0.1423112287
0.7550,0.09257034386,-0.638727761,-0.7504552195,0.1423887018
0.7600,0.09257898271,-0.638761939,-0.7504100263,0.1424679251
0.7650,0.09259304488,-0.6387968545,-0.7503633623,0.1425479962
0.7700,0.09261121404,-0.6388310238,-0.7503166402,0.1426289784
0.7750,0.09263370982,-0.6388654237,-0.7502690889,0.1427104077
0.7800,0.09266039033,-0.6388995765,-0.7502208839,0.1427935872
0.7850,0.09269176191,-0.6389339134,-0.7501715589,0.142878703
0.7900,0.09272743727,-0.6389677463,-0.7501220796,0.1429640069
0.7950,0.09276783578,-0.6390004181,-0.7500725823,0.1430514441
0.8000,0.09281365093,-0.6390327033,-0.7500226826,0.1431391137
0.8050,0.09286388307,-0.6390642365,-0.7499727064,0.143227583
0.8100,0.09291968748,-0.639095473,-0.7499217842,0.143318616
0.8150,0.09297837338,-0.6391252438,-0.7498714814,0.1434109695
0.8200,0.09303990454,-0.6391546826,-0.7498207729,0.14350497
0.8250,0.09310413798,-0.6391841566,-0.7497697874,0.1435983957
0.8300,0.09317009032,-0.6392127907,-0.7497191992,0.1436922574
0.8350,0.09323713235,-0.6392411636,-0.7496687376,0.1437857985
0.8400,0.09330665396,-0.6392683522,-0.7496188247,0.1438800194
0.8450,0.0933774436,-0.6392955827,-0.749569093,0.1439721702
0.8500,0.09344825712,-0.6393220995,-0.7495200202,0.1440639293
0.8550,0.09352029841,-0.6393475464,-0.7494716878,0.1441556723
0.8600,0.09359298551,-0.6393725063,-0.7494238277,0.1442465866
0.8650,0.09366593984,-0.6393977375,-0.7493758051,0.1443368553
0.8700,0.09373802975,-0.6394228752,-0.7493280028,0.1444268423
0.8750,0.09381060437,-0.6394474834,-0.7492805416,0.1445169762
0.8800,0.09388162246,-0.639471238,-0.7492344355,0.1446047626
0.8850,0.09395119874,-0.6394947275,-0.7491888534,0.1446918367
0.8900,0.09401927593,-0.6395163423,-0.7491457495,0.1447752385
0.8950,0.09408386154,-0.6395368914,-0.7491041689,0.1448576394
0.9000,0.09414504883,-0.6395567276,-0.7490640534,0.1449377309
0.9050,0.0942034918,-0.6395751117,-0.7490259639,0.1450154613
0.9100,0.09425836592,-0.6395929352,-0.7489891348,0.1450913977
0.9150,0.09430938569,-0.6396101423,-0.7489538989,0.1451642619
0.9200,0.09435731903,-0.6396249321,-0.7489213328,0.1452359451
0.9250,0.09440326704,-0.6396381611,-0.7488907172,0.1453056769
0.9300,0.09444766935,-0.6396500841,-0.7488613668,0.145375586
0.9350,0.094491737,-0.6396596232,-0.7488340896,0.1454454683
0.9400,0.09453325447,-0.6396687607,-0.7488075258,0.1455150497
0.9450,0.09457346771,-0.6396766504,-0.7487821028,0.1455850424
0.9500,0.09461353136,-0.6396824605,-0.7487582594,0.1456560965
0.9550,0.09465285699,-0.6396865202,-0.7487357164,0.1457285818
0.9600,0.09469015116,-0.6396884206,-0.7487153089,0.1458008437
0.9650,0.09472711784,-0.6396901351,-0.748695116,0.1458729839
0.9700,0.09476243058,-0.6396899278,-0.7486763365,0.1459473235
0.9750,0.0947959078,-0.6396887774,-0.7486586849,0.1460211542
0.9800,0.0948273382,-0.639687516,-0.7486414024,0.1460948611
0.9850,0.09485621024,-0.63968402,-0.7486261131,0.1461697531
0.9900,0.09488301153,-0.6396785225,-0.7486128672,0.1462442377
0.9950,0.09490656679,-0.6396722415,-0.748600524,0.1463195905
1.0000,0.09492823684,-0.6396652855,-0.7485889831,0.1463949681
1.0050,0.09494762195,-0.639657804,-0.7485780442,0.1464710028
1.0100,0.09496387588,-0.639649384,-0.7485682406,0.1465473199
1.0150,0.09497681847,-0.6396400717,-0.748559594,0.1466237254
1.0200,0.09498671614,-0.6396292715,-0.7485526611,0.1466998032
1.0250,0.09499391552,-0.6396173262,-0.7485473072,0.1467745244
1.0300,0.0949966841,-0.6396050366,-0.7485429014,0.1468487384
1.0350,0.09499498441,-0.6395922324,-0.7485399981,0.1469203879
1.0400,0.09499036822,-0.6395789548,-0.7485379671,0.1469915044
1.0450,0.09498202529,-0.6395654496,-0.7485369248,0.1470609496
1.0500,0.0949703238,-0.6395517456,-0.7485370167,0.1471276211
1.0550,0.0949549257,-0.6395370605,-0.7485387917,0.147192349
1.0600,0.09493912867,-0.6395236772,-0.7485397724,0.1472556869
1.0650,0.09492029345,-0.6395103759,-0.7485413182,0.1473177243
1.0700,0.09490062166,-0.6394968533,-0.7485433277,0.1473788762
1.0750,0.09487857998,-0.6394826901,-0.7485462815,0.147439508
1.0800,0.09485379728,-0.639466951,-0.7485512882,0.1474982869
1.0850,0.09482427662,-0.6394496758,-0.7485582554,0.1475567922
1.0900,0.09478876074,-0.6394319586,-0.7485665078,0.1476145134
1.0950,0.09474752546,-0.6394132648,-0.7485766689,0.1476704237
1.1000,0.09469929713,-0.6393917926,-0.7485902962,0.1477252421
1.1050,0.09464499127,-0.6393692914,-0.7486057699,0.1477790109
1.1100,0.09458389827,-0.6393450207,-0.7486236869,0.1478323578
1.1150,0.09451771111,-0.6393183362,-0.7486444345,0.1478850163
1.1200,0.09444824165,-0.6392898692,-0.748667442,0.14793598
1.1250,0.09437414661,-0.6392593868,-0.7486926338,0.147987489
1.1300,0.09429759211,-0.6392267433,-0.7487198234,0.1480397273
1.1350,0.0942194326,-0.6391919815,-0.7487488321,0.1480928619
1.1400,0.09413801151,-0.6391558279,-0.7487793015,0.1481466169
1.1450,0.09405381702,-0.6391173786,-0.7488113741,0.1482038529
1.1500,0.09396722819,-0.6390774098,-0.7488449969,0.1482612391
1.1550,0.09387559019,-0.6390355553,-0.748880792,0.1483188862
1.1600,0.09377771275,-0.6389905676,-0.7489195531,0.1483789002
1.1650,0.09367159904,-0.6389425391,-0.7489617161,0.1484399242
1.1700,0.09355660128,-0.6388912611,-0.7490071391,0.1485039543
1.1750,0.09342917484,-0.6388361429,-0.7490567559,0.1485710207
1.1800,0.09328897634,-0.638777152,-0.7491103723,0.1486424131
1.1850,0.09313146087,-0.6387123626,-0.7491699447,0.1487193422
1.1900,0.09295448346,-0.6386435673,-0.7492342888,0.1488013389
1.1950,0.09275640506,-0.6385688775,-0.7493049132,0.1488898422
1.2000,0.09253492108,-0.6384869992,-0.749382905,0.1489862472
1.2050,0.09228810776,-0.6383982466,-0.7494681225,0.1490909697
1.2100,0.09201687562,-0.6383005566,-0.7495621365,0.1492042142
1.2150,0.09172182117,-0.6381934625,-0.7496649291,0.1493275125
1.2200,0.09140348368,-0.6380792416,-0.7497742379,0.1494619578
1.2250,0.09106515766,-0.6379553279,-0.749891703,0.1496080558
1.2300,0.09070589826,-0.6378233608,-0.7500165048,0.1497632899
1.2350,0.09032717231,-0.6376844406,-0.7501474071,0.1499280621
1.2400,0.0899324938,-0.6375384446,-0.7502841239,0.1501020039
1.2450,0.08952258408,-0.6373855329,-0.750426252,0.1502858265
1.2500,0.0890992103,-0.6372270223,-0.7505727077,0.1504781154
1.2550,0.08866407658,-0.6370634784,-0.7507227958,0.1506787638
1.2600,0.08822098033,-0.6368952002,-0.7508752177,0.1508905893
1.2650,0.08777041606,-0.6367217778,-0.751030502,0.1511122657
1.2700,0.08731689506,-0.6365451163,-0.7511865727,0.1513433441
1.2750,0.08686086205,-0.6363643695,-0.7513435996,0.1515861969
1.2800,0.08640453826,-0.6361800383,-0.7515010569,0.1518399685
1.2850,0.08594818231,-0.6359924674,-0.7516586283,0.1521045622
1.2900,0.08549080611,-0.6358010647,-0.7518165334,0.1523818502
1.2950,0.08503418621,-0.6356052488,-0.7519749558,0.1526722657
1.3000,0.08457660028,-0.6354046491,-0.752134254,0.1529764508
1.3050,0.08412081909,-0.6351988583,-0.7522941317,0.1532959153
1.3100,0.08366761482,-0.6349875772,-0.7524547404,0.1536306303
1.3150,0.08321849667,-0.6347706602,-0.7526155099,0.1539830673
1.3200,0.08277345068,-0.634546366,-0.7527774011,0.1543555951
1.3250,0.08233293691,-0.6343150406,-0.7529399994,0.1547484217
1.3300,0.08189704858,-0.6340757343,-0.7531043285,0.1551602623
1.3350,0.08146608011,-0.6338288995,-0.7532697851,0.1555918854
1.3400,0.08103576432,-0.6335748855,-0.753437152,0.1560401469
1.3450,0.08060670839,-0.6333120903,-0.7536075924,0.1565054362
1.3500,0.0801775044,-0.633040966,-0.7537810349,0.1569867973
1.3550,0.07974712096,-0.6327626662,-0.7539567718,0.1574833046
1.3600,0.07931276992,-0.6324749148,-0.7541369245,0.1579951446
1.3650,0.07887575099,-0.6321775009,-0.7543216229,0.1585216467
1.3700,0.07843296824,-0.6318703916,-0.7545112207,0.1590625523
1.3750,0.07798391026,-0.6315533399,-0.7547056439,0.1596191705
1.3800,0.07752709543,-0.6312253,-0.7549057733,0.1601918961
1.3850,0.07706261178,-0.6308856661,-0.7551123528,0.1607792423
1.3900,0.07659020942,-0.6305316234,-0.7553271006,0.1613839605
1.3950,0.0761068093,-0.6301635067,-0.7555499,0.1620063485
1.4000,0.07561388917,-0.6297806384,-0.7557807142,0.1626480841
1.4050,0.07510939354,-0.6293801841,-0.7560219713,0.1633093439
1.4100,0.07459288949,-0.6289606498,-0.7562745217,0.1639916148
1.4150,0.07406338064,-0.6285228449,-0.7565374291,0.1646959846
1.4200,0.07351960669,-0.6280642207,-0.7568118958,0.1654265895
1.4250,0.07296101576,-0.6275832365,-0.7570989242,0.1661842062
1.4300,0.07238658255,-0.6270789085,-0.7573992881,0.1669686905
1.4350,0.07179642993,-0.626549657,-0.7577138601,0.1677811259
1.4400,0.07118891153,-0.625994531,-0.7580431713,0.1686224671
1.4450,0.07056398584,-0.6254131418,-0.7583878159,0.1694905504
1.4500,0.06992032747,-0.6248041985,-0.7587480091,0.1703887319
1.4550,0.06925715157,-0.6241670687,-0.7591242351,0.171316412
1.4600,0.06857203122,-0.6235017379,-0.7595169466,0.1722714929
1.4650,0.06786253888,-0.6228094366,-0.7599251149,0.1732538637
1.4700,0.06712596518,-0.6220883026,-0.7603506353,0.1742617571
1.4750,0.06636185128,-0.6213382438,-0.7607935465,0.1752942416
1.4800,0.06556655314,-0.6205587917,-0.761254283,0.1763511548
1.4850,0.06473923138,-0.6197501395,-0.7617329298,0.1774303812
1.4900,0.06387744947,-0.6189103211,-0.7622304728,0.1785340085
1.4950,0.06298018738,-0.6180390728,-0.7627474785,0.1796593568
1.5000,0.06204585385,-0.6171353042,-0.7632844898,0.180806847
1.5050,0.06107271893,-0.6161979746,-0.7638422792,0.1819756894
1.5100,0.06005641269,-0.615227,-0.7644205709,0.183167018
1.5150,0.05899524151,-0.6142208227,-0.765020692,0.1843791833
1.5200,0.05788647039,-0.613177674,-0.7656436648,0.185612702
1.5250,0.0567273228,-0.612097681,-0.766289318,0.1868665858
1.5300,0.05551820502,-0.6109796444,-0.7669575052,0.1881429995
1.5350,0.05425787602,-0.6098225872,-0.7676483426,0.1894426488
1.5400,0.05294491526,-0.6086254257,-0.7683618377,0.1907669088
1.5450,0.05158123143,-0.6073883682,-0.7690972124,0.1921151338
1.5500,0.0501673296,-0.6061115672,-0.7698534436,0.1934881973
1.5550,0.04870556362,-0.6047949434,-0.7706298228,0.1948859172
1.5600,0.04719533488,-0.6034387102,-0.771425772,0.1963074161
1.5650,0.04563863561,-0.6020433118,-0.7722404044,0.1977516713
1.5700,0.04403554939,-0.6006099336,-0.7730718891,0.1992195582
1.5750,0.04238704102,-0.5991378659,-0.7739202433,0.2007102723
1.5800,0.04069408427,-0.5976286267,-0.7747839354,0.2022223269
1.5850,0.03895810252,-0.596083512,-0.7756614233,0.2037549249
1.5900,0.0371814937,-0.5945045724,-0.7765502535,0.2053084354
1.5950,0.03536461002,-0.5928919913,-0.7774500977,0.2068810686
1.6000,0.03350900862,-0.5912477452,-0.778358775,0.2084727019
1.6050,0.03161424496,-0.5895729344,-0.7792752027,0.2100820149
1.6100,0.02968078051,-0.5878676616,-0.7801984608,0.2117097671
1.6150,0.02771023403,-0.5861329362,-0.781127839,0.2133532827
1.6200,0.02570320249,-0.5843701288,-0.7820619589,0.2150116055
1.6250,0.02366133605,-0.5825788109,-0.7830005521,0.2166845763
1.6300,0.02158528615,-0.5807597247,-0.7839423947,0.2183724786
1.6350,0.01947755517,-0.5789134894,-0.7848859265,0.2200769842
1.6400,0.01734088868,-0.5770391155,-0.7858312504,0.2217981033
1.6450,0.01517661376,-0.5751385788,-0.7867764004,0.2235356379
1.6500,0.01298580617,-0.5732123331,-0.7877205719,0.2252893486
1.6550,0.01077177792,-0.5712606317,-0.788663122,0.2270588897
1.6600,0.008536841695,-0.5692837951,-0.7896036315,0.2288431516
1.6650,0.006281541161,-0.5672830616,-0.7905404777,0.2306430648
1.6700,0.004010172299,-0.5652595399,-0.7914726485,0.2324577762
1.6750,0.001724324913,-0.5632130615,-0.7924002552,0.2342859568
1.6800,-0.0005711773887,-0.5611456428,-0.7933220284,0.2361258152
1.6850,-0.00287459179,-0.5590568254,-0.7942374785,0.2379790547
1.6900,-0.005184583563,-0.5569491624,-0.7951454635,0.2398425367
1.6950,-0.007497343981,-0.554823391,-0.7960450084,0.2417170645
1.7000,-0.009812614281,-0.5526795916,-0.7969363853,0.2436008607
1.7050,-0.01212873946,-0.5505209846,-0.7978171168,0.2454941698
1.7100,-0.01444447177,-0.5483481837,-0.7986873461,0.2473947249
1.7150,-0.01675840831,-0.5461609412,-0.7995469535,0.2493031312
1.7200,-0.01906910655,-0.54396095,-0.8003953372,0.2512173526
1.7250,-0.0213735049,-0.5417493187,-0.8012315946,0.2531378691
1.7300,-0.02367028901,-0.5395257448,-0.802055798,0.2550650604
1.7350,-0.02595725121,-0.5372914827,-0.8028670085,0.2569993197
1.7400,-0.0282325297,-0.5350475491,-0.8036647613,0.2589401396
1.7450,-0.03049511272,-0.532793623,-0.8044491992,0.2608878864
1.7500,-0.03274244724,-0.5305306536,-0.8052197383,0.2628427871
1.7550,-0.03497267624,-0.528260131,-0.8059753433,0.2648053849
1.7600,-0.03718154231,-0.5259809579,-0.8067169608,0.2667757671
1.7650,-0.03936783955,-0.523693543,-0.8074441924,0.2687547626
1.7700,-0.04152959559,-0.5213994019,-0.8081565943,0.2707413442
1.7750,-0.04366853412,-0.5191004279,-0.808853527,0.2727338937
1.7800,-0.04578231614,-0.5167954125,-0.8095356599,0.2747335009
1.7850,-0.04787072419,-0.5144860918,-0.8102025643,0.2767386128
1.7900,-0.04993462334,-0.5121724161,-0.8108548619,0.2787478117
1.7950,-0.05197373883,-0.5098547976,-0.811492057,0.280762279
1.8000,-0.05398889649,-0.5075345333,-0.8121142395,0.2827796997
1.8050,-0.05597829629,-0.5052115385,-0.8127210738,0.2848020153
1.8100,-0.05794115308,-0.5028853651,-0.8133133259,0.2868284614
1.8150,-0.05987793488,-0.5005567011,-0.8138902415,0.2888603411
1.8200,-0.06178872831,-0.4982253525,-0.8144522969,0.2908970733
1.8250,-0.0636742707,-0.4958925283,-0.8149988052,0.2929387907
1.8300,-0.06553575237,-0.493556567,-0.8155309234,0.2949852426
1.8350,-0.06737302339,-0.4912177911,-0.8160483646,0.2970370753
1.8400,-0.06918584476,-0.4888771829,-0.816550918,0.2990936596
1.8450,-0.07097501582,-0.4865338768,-0.8170393273,0.3011545643
1.8500,-0.07273970909,-0.484187785,-0.8175132653,0.3032213458
1.8550,-0.07448066106,-0.4818388689,-0.8179725176,0.305294769
1.8600,-0.07619631525,-0.479486948,-0.8184174035,0.3073749206
1.8650,-0.07788773091,-0.4771325215,-0.8188472511,0.3094628212
1.8700,-0.07955411951,-0.4747747537,-0.8192626463,0.3115586488
1.8750,-0.08119474756,-0.47241605,-0.8196628021,0.3136612496
1.8800,-0.08281139498,-0.4700541559,-0.8200480058,0.3157730698
1.8850,-0.0844032746,-0.4676911109,-0.8204174861,0.3178934734
1.8900,-0.08597159933,-0.4653257364,-0.8207722172,0.3200215783
1.8950,-0.08751716659,-0.4629599312,-0.8211115202,0.3221563579
1.9000,-0.08904022211,-0.4605920543,-0.821436355,0.3242978771
1.9050,-0.09053938902,-0.4582219742,-0.82174725,0.3264455521
1.9100,-0.0920166065,-0.4558513143,-0.8220437001,0.3285980501
1.9150,-0.09347507702,-0.4534791668,-0.8223259218,0.3307553985
1.9200,-0.09491672806,-0.4511065145,-0.8225935636,0.332916741
1.9250,-0.09634390164,-0.4487338924,-0.82284693,0.3350801042
1.9300,-0.0977561374,-0.4463609997,-0.8230862181,0.3372457163
1.9350,-0.09915621202,-0.4439872058,-0.8233122091,0.3394118634
1.9400,-0.1005455619,-0.4416141546,-0.8235239868,0.3415783535
1.9450,-0.101925918,-0.4392413195,-0.8237221105,0.343744171
1.9500,-0.1032972548,-0.4368672422,-0.8239070252,0.3459102537
1.9550,-0.1046618883,-0.4344918679,-0.8240787639,0.3480759928
1.9600,-0.1060214572,-0.4321164128,-0.8242371915,0.3502397872
1.9650,-0.1073764434,-0.4297405021,-0.8243825804,0.3524014207
1.9700,-0.1087295417,-0.4273652741,-0.8245148083,0.3545590784
1.9750,-0.1100806033,-0.4249900913,-0.8246340664,0.3567132458
1.9800,-0.111432664,-0.4226157742,-0.8247397179,0.3588635764
1.9850,-0.1127848398,-0.4202436313,-0.8248318424,0.3610087284
1.9900,-0.1141384644,-0.4178731534,-0.8249103447,0.363149228
1.9950,-0.115493928,-0.4155052958,-0.8249751799,0.3652840734
2.0000,-0.1168528488,-0.4131401216,-0.8250259444,0.3674137215
2.0050,-0.1182139303,-0.4107782695,-0.8250625356,0.3695382151
2.0100,-0.1195783604,-0.4084198955,-0.82508493,0.3716571847
2.0150,-0.120944727,-0.4060664541,-0.8250924734,0.3737710773
2.0200,-0.1223120979,-0.4037152797,-0.8250868437,0.3758795339
2.0250,-0.1236825052,-0.4013678162,-0.8250681234,0.3779802981
2.0300,-0.1250551143,-0.399024773,-0.8250359259,0.3800739005
2.0350,-0.1264306322,-0.3966860503,-0.8249907918,0.3821592158
2.0400,-0.12780919,-0.3943510526,-0.8249335901,0.3842351235
2.0450,-0.1291899005,-0.3920195823,-0.8248637852,0.3863034462
2.0500,-0.1305747918,-0.3896918656,-0.8247822319,0.3883616143
2.0550,-0.1319652128,-0.3873669279,-0.8246900021,0.3904080509
2.0600,-0.1333616046,-0.3850477941,-0.8245856901,0.3924427581
2.0650,-0.1347641006,-0.3827320055,-0.824470689,0.3944653751
2.0700,-0.1361728305,-0.3804191636,-0.8243447975,0.3964768279
2.0750,-0.1375868361,-0.3781087755,-0.8242086693,0.3984767067
2.0800,-0.1390074783,-0.3758009306,-0.8240623415,0.4004645289
2.0850,-0.140434683,-0.3734946273,-0.8239052932,0.4024424569
2.0900,-0.1418669303,-0.3711905339,-0.8237379068,0.404409721
2.0950,-0.1433036403,-0.3688887069,-0.8235605085,0.4063659402
2.1000,-0.1447441636,-0.3665860168,-0.8233731285,0.4083142303
2.1050,-0.1461872243,-0.364282859,-0.8231769991,0.4102522666
2.1100,-0.1476313523,-0.3619805178,-0.8229712217,0.4121813397
2.1150,-0.1490762419,-0.3596769864,-0.8227574015,0.4141002268
2.1200,-0.1505208975,-0.3573723761,-0.8225350022,0.4160103537
2.1250,-0.1519649106,-0.3550668616,-0.822304444,0.4179109847
2.1300,-0.1534078103,-0.3527609895,-0.8220650718,0.4198032226
2.1350,-0.1548508357,-0.3504552269,-0.8218172096,0.4216856964
2.1400,-0.1562930207,-0.348149242,-0.8215616097,0.423557692
2.1450,-0.157735523,-0.3458439978,-0.8212962788,0.4254219744
2.1500,-0.1591781589,-0.3435390197,-0.821022429,0.4272767566
2.1550,-0.1606220198,-0.3412337049,-0.820739975,0.4291223821
2.1600,-0.1620666507,-0.33892886,-0.8204485218,0.4309592226
2.1650,-0.1635114289,-0.3366226088,-0.8201489093,0.432787475
2.1700,-0.1649565106,-0.3343140814,-0.81984176,0.4346066419
2.1750,-0.1663997659,-0.3320020829,-0.8195272016,0.4364182634
2.1800,-0.1678398498,-0.3296880556,-0.8192058322,0.4382206924
2.1850,-0.169275209,-0.3273702002,-0.8188779771,0.4400153568
2.1900,-0.1707066088,-0.3250479848,-0.8185438227,0.4418020729
2.1950,-0.1721327115,-0.3227203825,-0.8182035866,0.4435817571
2.2000,-0.173554437,-0.3203884335,-0.817856762,0.4453542701
2.2050,-0.1749723721,-0.3180517856,-0.8175033154,0.4471197378
2.2100,-0.176385707,-0.3157094143,-0.817143058,0.4488795728
2.2150,-0.1777937211,-0.3133620857,-0.8167754002,0.4506345987
2.2200,-0.1791955812,-0.3110078162,-0.8164009236,0.4523854705
2.2250,-0.1805904122,-0.3086465364,-0.8160200341,0.4541318339
2.2300,-0.1819774483,-0.3062783293,-0.8156319879,0.455875261
2.2350,-0.1833551216,-0.3039031984,-0.815236797,0.4576163351
2.2400,-0.1847237148,-0.3015198099,-0.814834551,0.4593556443
2.2450,-0.1860825468,-0.2991279395,-0.814424524,0.4610948453
2.2500,-0.1874323343,-0.2967279441,-0.8140079022,0.4628312678
2.2550,-0.1887724356,-0.2943202955,-0.8135846022,0.4645649861
2.2600,-0.1901042977,-0.2919049614,-0.81315354,0.4662972979
2.2650,-0.1914278651,-0.2894833774,-0.8127149584,0.4680268615
2.2700,-0.1927444976,-0.2870540202,-0.8122685147,0.4697546255
2.2750,-0.1940575312,-0.2846199769,-0.8118134246,0.4714786389
2.2800,-0.1953672886,-0.2821799892,-0.8113490179,0.4732006418
2.2850,-0.1966766644,-0.2797342361,-0.8108758785,0.4749182629
2.2900,-0.1979844789,-0.2772844293,-0.8103926005,0.4766333229
2.2950,-0.1992909584,-0.2748292304,-0.8098999134,0.4783452083
2.3000,-0.2005951074,-0.2723693996,-0.8093981533,0.4800532705
2.3050,-0.2018952799,-0.2699030401,-0.8088882409,0.4817576762
2.3100,-0.2031919284,-0.2674301345,-0.8083697707,0.4834588681
2.3150,-0.2044853381,-0.2649506011,-0.8078437932,0.4851549559
2.3200,-0.2057780258,-0.262467735,-0.8073087888,0.4868455728
2.3250,-0.2070697683,-0.2599804055,-0.8067640248,0.488532607
2.3300,-0.2083604265,-0.2574887536,-0.8062099739,0.4902152103
2.3350,-0.209650526,-0.2549932155,-0.8056465494,0.4918930314
2.3400,-0.2109381802,-0.2524937211,-0.805074357,0.4935658867
2.3450,-0.2122246919,-0.2499907878,-0.8044924943,0.4952344018
2.3500,-0.2135082481,-0.2474841535,-0.8039010886,0.4968992467
2.3550,-0.2147868438,-0.2449735837,-0.8033005156,0.4985607652
2.3600,-0.2160624033,-0.242457499,-0.8026902871,0.5002196538
2.3650,-0.2173339892,-0.2399363204,-0.8020699138,0.5018768301
2.3700,-0.218601647,-0.2374103109,-0.8014390534,0.5035326285
2.3750,-0.2198642802,-0.2348787985,-0.8007979106,0.5051874451
2.3800,-0.2211206577,-0.2323419885,-0.8001463416,0.5068418758
2.3850,-0.2223710715,-0.2297997762,-0.799484714,0.5084951932
2.3900,-0.2236148765,-0.2272532449,-0.7988122758,0.5101483095
2.3950,-0.2248524825,-0.2247000676,-0.7981292669,0.5118016355
2.4000,-0.2260817607,-0.2221434578,-0.797435619,0.5134547256
2.4050,-0.2273048057,-0.219582895,-0.7967305721,0.5151080208
2.4100,-0.2285202995,-0.2170178643,-0.7960149153,0.5167610415
2.4150,-0.2297306223,-0.21445071,-0.7952868751,0.5184144292
2.4200,-0.230934857,-0.2118809748,-0.7945465796,0.5200685312
2.4250,-0.2321309254,-0.20930736,-0.793794979,0.5217232924
2.4300,-0.2333189839,-0.2067305703,-0.7930317235,0.5233788384
2.4350,-0.2344966801,-0.2041497167,-0.7922583575,0.5250341848
2.4400,-0.2356629683,-0.2015649846,-0.791474146,0.5266907998
2.4450,-0.2368175117,-0.1989756505,-0.7906799966,0.5283477071
2.4500,-0.2379616425,-0.1963833286,-0.7898754366,0.5300043769
2.4550,-0.2390942464,-0.1937885356,-0.7890602765,0.5316613817
2.4600,-0.2402171385,-0.1911927231,-0.7882346541,0.5333171656
2.4650,-0.2413301176,-0.1885953614,-0.7873982586,0.5349724725
2.4700,-0.2424337255,-0.185999114,-0.7865509146,0.536626385
2.4750,-0.2435295627,-0.1834045201,-0.7856925717,0.5382781036
2.4800,-0.2446173877,-0.180811053,-0.7848230471,0.5399282189
2.4850,-0.2456989152,-0.1782190652,-0.7839422744,0.5415759579
2.4900,-0.2467729062,-0.1756293678,-0.7830506431,0.5432210859
2.4950,-0.2478392151,-0.1730411689,-0.7821481703,0.5448639435
2.5000,-0.2488973513,-0.1704542233,-0.7812355817,0.5465038263
2.5050,-0.2499469615,-0.167868105,-0.7803133393,0.5481404093
2.5100,-0.2509873422,-0.1652839205,-0.7793819036,0.5497730695
2.5150,-0.252019309,-0.1627007004,-0.7784418698,0.5514009478
2.5200,-0.2530401615,-0.1601196172,-0.7774945712,0.5530231249
2.5250,-0.2540504706,-0.1575408065,-0.7765391312,0.5546406317
2.5300,-0.2550528848,-0.1549648374,-0.7755762007,0.556251276
2.5350,-0.2560494843,-0.1523915796,-0.77460551,0.5578546155
2.5400,-0.2570396682,-0.1498206312,-0.7736283458,0.5594493454
2.5450,-0.2580233584,-0.147252966,-0.7726454318,0.5610343548
2.5500,-0.2590010838,-0.1446897648,-0.7716561054,0.5626101363
2.5550,-0.2599742894,-0.1421297021,-0.7706604358,0.564176399
2.5600,-0.2609441434,-0.1395732366,-0.7696598623,0.5657306444
2.5650,-0.2619111605,-0.1370195087,-0.7686542449,0.5672731705
2.5700,-0.2628762297,-0.1344707558,-0.7676437337,0.5688029552
2.5750,-0.263838994,-0.1319261807,-0.7666294022,0.5703190579
2.5800,-0.2648004066,-0.1293860309,-0.7656126236,0.5718192987
2.5850,-0.2657608377,-0.1268503272,-0.7645919922,0.573305553
2.5900,-0.2667214097,-0.1243191101,-0.763568149,0.5747765917
2.5950,-0.2676821648,-0.1217933246,-0.7625407493,0.5762328092
2.6000,-0.2686451894,-0.1192755763,-0.7615097282,0.5776729464
2.6050,-0.2696124128,-0.1167661746,-0.7604747558,0.5790966699
2.6100,-0.2705834412,-0.1142660726,-0.7594349238,0.580505351
2.6150,-0.271558728,-0.1117744112,-0.7583904688,0.5818988186
2.6200,-0.272538006,-0.1092913351,-0.7573411906,0.5832776014
2.6250,-0.2735201681,-0.1068173381,-0.7562871352,0.5846422351
2.6300,-0.2745029725,-0.1043521245,-0.7552304198,0.5859912672
2.6350,-0.2754866253,-0.1018940787,-0.7541700633,0.5873263417
2.6400,-0.2764707669,-0.09944430534,-0.7531051674,0.5886487509
2.6450,-0.2774561408,-0.09700352782,-0.7520367826,0.5899568486
2.6500,-0.2784443246,-0.09457160994,-0.7509642702,0.5912509058
2.6550,-0.2794347703,-0.09214828724,-0.7498856709,0.5925338664
2.6600,-0.2804267087,-0.08973348177,-0.7488029668,0.5938037387
2.6650,-0.2814187398,-0.08732762768,-0.7477167169,0.5950605765
2.6700,-0.2824113391,-0.08493155061,-0.7466266469,0.5963045508
2.6750,-0.2834025494,-0.08254308992,-0.7455332981,0.5975363878
2.6800,-0.2843920407,-0.08016075356,-0.7444382711,0.5987546085
2.6850,-0.2853791305,-0.07778596866,-0.7433405997,0.5999607052
2.6900,-0.2863640196,-0.07541702668,-0.742241438,0.6011535312
2.6950,-0.2873460024,-0.07305736622,-0.7411399926,0.6023341327
2.7000,-0.28832808,-0.0707063862,-0.7400362829,0.6035013051
2.7050,-0.2893099809,-0.06836395082,-0.7389284228,0.6046576644
2.7100,-0.290293628,-0.06603259391,-0.7378163524,0.6058022254
2.7150,-0.2912753265,-0.06371069049,-0.7367014134,0.6069354658
2.7200,-0.2922575338,-0.06139847119,-0.735583475,0.6080565048
2.7250,-0.293241658,-0.05909611588,-0.734460877,0.6091668074
2.7300,-0.2942256818,-0.0568036581,-0.7333343914,0.6102665508
2.7350,-0.2952086829,-0.05452114791,-0.7322032463,0.6113572475
2.7400,-0.2961924115,-0.05224742565,-0.7310674704,0.6124382545
2.7450,-0.2971736327,-0.04998260986,-0.7299284618,0.6135095855
2.7500,-0.2981528838,-0.04772535578,-0.7287849763,0.6145727025
2.7550,-0.2991290233,-0.04547611595,-0.7276382002,0.615626835
2.7600,-0.3001009149,-0.04323241608,-0.7264872733,0.6166738529
2.7650,-0.3010671903,-0.04099543949,-0.7253334112,0.6177130106
2.7700,-0.3020292877,-0.03876373007,-0.7241753771,0.6187452673
2.7750,-0.3029867226,-0.03653711492,-0.7230139713,0.6197700239
2.7800,-0.3039403746,-0.0343152276,-0.7218493151,0.6207868234
2.7850,-0.3048897764,-0.0320979717,-0.7206807093,0.6217967994
2.7900,-0.305834039,-0.02988470142,-0.7195091744,0.6227993202
2.7950,-0.3067733026,-0.02767603412,-0.718335371,0.6237936139
2.8000,-0.3077072287,-0.02547116503,-0.7171588745,0.6247804653
2.8050,-0.3086379348,-0.02327051295,-0.7159795785,0.6257590204
2.8100,-0.3095637472,-0.02107274996,-0.7147986858,0.6267288603
2.8150,-0.310485363,-0.01888096161,-0.713614833,0.6276911811
2.8200,-0.3114053371,-0.01669469076,-0.7124280256,0.6286448216
2.8250,-0.3123253829,-0.01451314189,-0.7112381615,0.629589153
2.8300,-0.3132438307,-0.01233676066,-0.7100451365,0.6305251867
2.8350,-0.3141594433,-0.01016503102,-0.7088497428,0.6314527365
2.8400,-0.3150723067,-0.007999516488,-0.7076506875,0.6323732709
2.8450,-0.3159830716,-0.005839229571,-0.706449378,0.6332849897
2.8500,-0.3168921665,-0.003684086091,-0.705245083,0.6341885801
2.8550,-0.3177995153,-0.001534121508,-0.7040383883,0.6350835082
2.8600,-0.3187044644,0.0006101191661,-0.7028293032,0.6359701744
2.8650,-0.3196077898,0.002748644443,-0.7016185845,0.6368474445
2.8700,-0.3205091202,0.004882635397,-0.7004058707,0.637715987
2.8750,-0.3214079563,0.00701028848,-0.6991917922,0.6385754609
2.8800,-0.3223043069,0.009132122908,-0.6979766228,0.639425658
2.8850,-0.3231999633,0.01124681869,-0.6967594909,0.6402667449
2.8900,-0.3240938757,0.01335409242,-0.6955428786,0.6410966636
2.8950,-0.3249880582,0.01545325949,-0.6943261415,0.6419152343
2.9000,-0.3258823018,0.01754718575,-0.6931070657,0.6427249934
2.9050,-0.3267779257,0.01963376242,-0.6918871375,0.6435238081
2.9100,-0.3276739606,0.0217127221,-0.69066744,0.644311121
2.9150,-0.3285703836,0.0237841722,-0.6894477009,0.645087346
2.9200,-0.3294659176,0.02584932168,-0.6882286606,0.6458524076
2.9250,-0.330360235,0.02790719617,-0.6870121703,0.6466046562
2.9300,-0.3312562186,0.02995807392,-0.6857964991,0.6473445707
2.9350,-0.3321525846,0.03200051251,-0.6845826075,0.6480719723
2.9400,-0.3330495438,0.03403430772,-0.6833702911,0.6487871087
2.9450,-0.3339454618,0.03606138647,-0.6821612416,0.6494890649
2.9500,-0.3348392035,0.03808098436,-0.680955896,0.6501781403
2.9550,-0.3357313967,0.04009260642,-0.6797560658,0.6508522898
2.9600,-0.3366217151,0.04209449722,-0.6785603882,0.6515133719
2.9650,-0.3375108953,0.04408744692,-0.6773685006,0.6521614884
2.9700,-0.3383991031,0.0460708277,-0.6761812774,0.6527958379
2.9750,-0.3392888359,0.04804182948,-0.6749976299,0.6534166114
2.9800,-0.3401814823,0.0499993099,-0.6738173563,0.6540235458
2.9850,-0.3410750833,0.05194418326,-0.6726416765,0.6546165018
2.9900,-0.3419699262,0.05387626281,-0.6714689201,0.6551972278
2.9950,-0.3428658488,0.05579768737,-0.6703001173,0.6557647296
3.0000,-0.3437616348,0.05770821018,-0.6691351469,0.6563199342
3.0050,-0.3446555449,0.05960737663,-0.6679759257,0.6568619937
3.0100,-0.3455473197,0.06149695136,-0.6668216116,0.6573919022
3.0150,-0.3464389387,0.06337796956,-0.6656706788,0.6579102082
3.0200,-0.3473291223,0.06524818425,-0.664524451,0.6584165925
3.0250,-0.348218708,0.06710877762,-0.6633815297,0.6589120498
3.0300,-0.3491082263,0.06896147016,-0.6622418719,0.6593962883
3.0350,-0.3499981779,0.07080562391,-0.6611043178,0.6598703813
3.0400,-0.3508861902,0.0726424202,-0.6599691003,0.6603353292
3.0450,-0.351774127,0.07447250801,-0.6588338972,0.6607924826
3.0500,-0.3526603571,0.07629545686,-0.6576993756,0.6612421698
3.0550,-0.3535467253,0.07811189118,-0.6565633471,0.6616855876
3.0600,-0.3544327983,0.07992331444,-0.6554270407,0.6621216275
3.0650,-0.3553191602,0.08172886985,-0.654289126,0.6625514514
3.0700,-0.35620428,0.08352997091,-0.6531497768,0.6629755832
3.0750,-0.3570877537,0.08532604044,-0.6520088142,0.6633945351
3.0800,-0.3579683257,0.08711842565,-0.6508666317,0.6638084704
3.0850,-0.3588460458,0.08890704274,-0.649725032,0.6642156547
3.0900,-0.3597204376,0.09069135676,-0.6485842364,0.6646162599
3.0950,-0.360591416,0.09247057229,-0.6474431689,0.6650115541
3.1000,-0.3614608866,0.09424290807,-0.6463035756,0.6653991208
3.1050,-0.3623281159,0.09600652797,-0.6451652111,0.6657799437
3.1100,-0.363195265,0.09775995023,-0.644026931,0.6661542642
3.1150,-0.3640610607,0.09950397294,-0.6428915151,0.6665200696
3.1200,-0.3649260672,0.1012367814,-0.641759472,0.6668769449
3.1250,-0.3657896823,0.1029558598,-0.6406308025,0.6672257295
3.1300,-0.3666533079,0.1046615746,-0.6395064794,0.6675648054
3.1350,-0.3675168775,0.106352076,-0.6383878906,0.6678933162
3.1400,-0.3683810649,0.1080270463,-0.637275277,0.6682108721
3.1450,-0.3692446385,0.109684774,-0.6361693094,0.6685179557
3.1500,-0.3701086001,0.1113254984,-0.6350699875,0.6688141509
3.1550,-0.3709714468,0.1129486096,-0.633978111,0.6690998072
3.1600,-0.3718326153,0.1145539773,-0.6328943678,0.6693747916
3.1650,-0.3726895791,0.1161429339,-0.6318187818,0.6696404434
3.1700,-0.3735429376,0.1177158325,-0.6307526358,0.6698953418
3.1750,-0.3743897025,0.1192751596,-0.6296950142,0.6701417582
3.1800,-0.3752302601,0.1208205959,-0.6286450346,0.6703805307
3.1850,-0.376062183,0.1223522053,-0.6276046645,0.6706113312
3.1900,-0.3768833118,0.1238722644,-0.626573347,0.6708356521
3.1950,-0.3776928733,0.1253817307,-0.6255508239,0.6710541571
3.2000,-0.3784899679,0.1268792298,-0.6245384791,0.6712664846
3.2050,-0.3792724314,0.1283651567,-0.6235345505,0.6714755942
3.2100,-0.3800412974,0.1298401332,-0.6225394,0.6716806143
3.2150,-0.3807943956,0.1313052644,-0.6215537865,0.6718820181
3.2200,-0.3815328243,0.1327585822,-0.6205770756,0.6720803196
3.2250,-0.3822553559,0.1342012217,-0.6196089835,0.6722764183
3.2300,-0.3829605891,0.135632509,-0.6186499058,0.672471043
3.2350,-0.3836493143,0.1370528206,-0.6176985731,0.6726649989
3.2400,-0.3843224554,0.1384614253,-0.6167558959,0.6728572277
3.2450,-0.3849800027,0.1398572626,-0.6158204778,0.673049391
3.2500,-0.3856238701,0.1412384719,-0.6148897097,0.6732433213
3.2550,-0.3862528725,0.1426064592,-0.6139644055,0.6734388058
3.2600,-0.3868671996,0.1439630949,-0.6130448163,0.6736352502
3.2650,-0.3874660774,0.1453089062,-0.6121325511,0.6738316559
3.2700,-0.3880499799,0.1466436874,-0.6112261817,0.6740292255
3.2750,-0.3886185248,0.1479678017,-0.6103256747,0.6742282571
3.2800,-0.3891713077,0.1492823045,-0.6094292225,0.6744305076
3.2850,-0.3897099429,0.1505870451,-0.6085373201,0.6746347399
3.2900,-0.390233929,0.1518823973,-0.60765089,0.6748404359
3.2950,-0.3907436594,0.1531697184,-0.6067694986,0.675047558
3.3000,-0.3912387864,0.1544503351,-0.6058946943,0.6752547115
3.3050,-0.391720958,0.1557246417,-0.6050258861,0.675461475
3.3100,-0.3921907731,0.1569927825,-0.6041633129,0.6756673406
3.3150,-0.3926479281,0.1582543773,-0.6033073179,0.6758723525
3.3200,-0.3930933395,0.159511873,-0.6024567131,0.6760765472
3.3250,-0.3935258306,0.1607643993,-0.6016126703,0.6762798412
3.3300,-0.3939489102,0.1620107218,-0.6007743887,0.6764812754
3.3350,-0.3943633282,0.1632530014,-0.5999408308,0.6766808867
3.3400,-0.3947717375,0.1644899081,-0.5991111641,0.6768782449
3.3450,-0.3951765673,0.1657202173,-0.5982859598,0.6770717839
3.3500,-0.3955785812,0.1669440418,-0.5974659,0.67726049
3.3550,-0.3959769408,0.1681628879,-0.5966522868,0.6774433955
3.3600,-0.396373467,0.1693755739,-0.5958445317,0.6776203093
3.3650,-0.3967681503,0.1705823737,-0.5950431182,0.6777908056
3.3700,-0.3971623168,0.1717824443,-0.5942488282,0.6779536976
3.3750,-0.39755799,0.1729743088,-0.5934602361,0.6781094906
3.3800,-0.3979557192,0.1741580728,-0.5926781491,0.6782571952
3.3850,-0.3983561071,0.1753337917,-0.5919019799,0.6783970221
3.3900,-0.3987604201,0.1765012624,-0.5911319538,0.678528146
3.3950,-0.3991691549,0.1776622233,-0.5903692602,0.6786488464
3.4000,-0.3995803013,0.1788168069,-0.5896134904,0.6787606826
3.4050,-0.3999948017,0.179965793,-0.5888646745,0.6788629222
3.4100,-0.4004126797,0.1811085092,-0.5881237459,0.6789549715
3.4150,-0.4008354556,0.1822454559,-0.5873890734,0.6790372654
3.4200,-0.40126064,0.1833782593,-0.5866608764,0.6791106897
3.4250,-0.4016873844,0.1845103992,-0.5859411889,0.6791730861
3.4300,-0.4021144794,0.1856419439,-0.5852299356,0.6792252473
3.4350,-0.4025407279,0.1867739944,-0.5845264485,0.679268186
3.4400,-0.4029662828,0.1879069504,-0.5838309101,0.6793015688
3.4450,-0.4033919942,0.1890412114,-0.5831415019,0.6793263635
3.4500,-0.4038153881,0.1901786527,-0.582457939,0.6793437728
3.4550,-0.4042361911,0.1913184864,-0.5817806435,0.6793538264
3.4600,-0.4046525431,0.192463468,-0.581108521,0.6793577995
3.4650,-0.4050651901,0.1936139359,-0.5804421049,0.6793546927
3.4700,-0.4054717164,0.1947705953,-0.5797802537,0.6793467154
3.4750,-0.4058725057,0.1959324281,-0.5791232431,0.6793336898
3.4800,-0.4062666135,0.1971021754,-0.5784712325,0.6793152466
3.4850,-0.406652748,0.1982804537,-0.5778238877,0.6792922486
3.4900,-0.4070317907,0.1994662942,-0.5771801056,0.6792653713
3.4950,-0.4074022863,0.2006593818,-0.576540373,0.6792351492
3.5000,-0.4077642877,0.2018605162,-0.5759042795,0.6792016479
3.5050,-0.4081165128,0.2030709475,-0.5752730163,0.6791642356
3.5100,-0.4084568961,0.2042909766,-0.5746468749,0.6791237958
3.5150,-0.408787162,0.205518242,-0.5740249612,0.6790807407
3.5200,-0.4091055529,0.206754904,-0.5734074762,0.6790352881
3.5250,-0.4094127384,0.2079991606,-0.5727945887,0.6789874211
3.5300,-0.4097099339,0.2092515189,-0.5721847234,0.6789375628
3.5350,-0.4099967174,0.2105097568,-0.5715795686,0.6788852118
3.5400,-0.4102729964,0.2117758105,-0.5709777254,0.6788309889
3.5450,-0.4105376871,0.2130496074,-0.5703803483,0.6787745801
3.5500,-0.4107890889,0.2143322464,-0.5697896598,0.6787147826
3.5550,-0.4110290416,0.2156205412,-0.5692052801,0.6786517945
3.5600,-0.411257864,0.2169132117,-0.5686267586,0.6785862048
3.5650,-0.4114789372,0.2182073084,-0.5680516569,0.6785189533
3.5700,-0.4116920776,0.2195028624,-0.5674798408,0.6784502612
3.5750,-0.4118977377,0.2207995246,-0.5669112596,0.6783800169
3.5800,-0.4120959058,0.2220965501,-0.5663479618,0.6783067691
3.5850,-0.4122865517,0.2233926018,-0.5657893478,0.6782314934
3.5900,-0.4124696105,0.2246897423,-0.5652352523,0.6781537065
3.5950,-0.4126453567,0.2259856313,-0.5646863029,0.6780735088
3.6000,-0.4128159836,0.2272792073,-0.5641405537,0.6779915643
3.6050,-0.4129802704,0.2285713858,-0.5635987158,0.677907741
3.6100,-0.4131383843,0.2298618809,-0.5630601306,0.6778226025
3.6150,-0.4132924406,0.2311492462,-0.5625244513,0.677735661
3.6200,-0.4134425901,0.232433679,-0.5619920038,0.6776465135
3.6250,-0.4135917354,0.2337142628,-0.5614625924,0.6775538924
3.6300,-0.4137397651,0.234991491,-0.5609358478,0.6774580287
3.6350,-0.4138884943,0.2362638063,-0.5604124254,0.6773578387
3.6400,-0.4140395776,0.2375295959,-0.5598912446,0.6772538028
3.6450,-0.4141939368,0.2387905069,-0.5593725416,0.6771446199
3.6500,-0.4143512277,0.2400474913,-0.5588553059,0.6770310252
3.6550,-0.4145139156,0.2413007615,-0.5583393547,0.6769116052
3.6600,-0.4146838647,0.2425473737,-0.5578221094,0.6767884146
3.6650,-0.4148632245,0.2437881205,-0.5573020925,0.6766610931
3.6700,-0.4150527559,0.2450238864,-0.5567790121,0.67652911
3.6750,-0.4152510642,0.246257247,-0.556253212,0.6763921097
3.6800,-0.4154595857,0.2474875862,-0.5557227738,0.6762510081
3.6850,-0.4156802858,0.2487142523,-0.5551876675,0.6761048547
3.6900,-0.4159133106,0.2499387667,-0.5546468155,0.6759538749
3.6950,-0.4161575207,0.2511620096,-0.5541000517,0.6757985614
3.7000,-0.4164128789,0.2523869252,-0.5535468262,0.6756382653
3.7050,-0.4166813078,0.2536136035,-0.5529857727,0.675472844
3.7100,-0.4169627979,0.2548429823,-0.5524145461,0.6753038197
3.7150,-0.4172571659,0.2560771573,-0.5518340862,0.6751296827
3.7200,-0.417565019,0.2573164023,-0.5512423332,0.6749515642
3.7250,-0.4178858092,0.2585610035,-0.5506382353,0.6747704734
3.7300,-0.4182195637,0.2598114798,-0.5500194607,0.6745880108
3.7350,-0.4185687924,0.2610696472,-0.5493841085,0.6744033709
3.7400,-0.4189299073,0.2623395056,-0.5487322658,0.67421704
3.7450,-0.41930158,0.2636233328,-0.5480653825,0.6740276403
3.7500,-0.4196845601,0.2649193474,-0.5473812843,0.6738370271
3.7550,-0.4200793992,0.2662294587,-0.5466788821,0.6736448424
3.7600,-0.4204842103,0.2675537305,-0.5459581228,0.6734521203
3.7650,-0.4208972045,0.268894215,-0.5452191579,0.6732588761
3.7700,-0.421317208,0.2702523754,-0.544463116,0.6730641716
3.7750,-0.4217437759,0.2716285978,-0.5436895259,0.6728683317
3.7800,-0.4221756803,0.2730209798,-0.5428990504,0.6726721792
3.7850,-0.4226111404,0.2744296639,-0.5420926105,0.6724758622
3.7900,-0.423049858,0.2758536639,-0.5412707675,0.6722793541
3.7950,-0.4234910742,0.2772938886,-0.5404345729,0.6720817524
3.8000,-0.4239319687,0.2787503463,-0.5395872281,0.6718820981
3.8050,-0.424372179,0.2802208774,-0.5387298855,0.6716804479
3.8100,-0.4248098925,0.2817042774,-0.537866078,0.6714754928
3.8150,-0.4252430541,0.2832028212,-0.5369988893,0.6712649998
3.8200,-0.4256693322,0.2847150179,-0.5361324416,0.6710476759
3.8250,-0.4260891739,0.286237492,-0.5352676902,0.6708238323
3.8300,-0.4264997838,0.2877694843,-0.5344085053,0.6705924305
3.8350,-0.4269000828,0.2893111302,-0.5335572001,0.6703522235
3.8400,-0.4272902924,0.2908580848,-0.5327161695,0.6701030244
3.8450,-0.4276706666,0.2924082554,-0.5318867993,0.6698444938
3.8500,-0.4280415798,0.2939579542,-0.5310700467,0.669577279
3.8550,-0.4284027464,0.2955051918,-0.5302656702,0.6693026875
3.8600,-0.4287529206,0.2970485785,-0.5294766336,0.6690198574
3.8650,-0.4290901731,0.2985866208,-0.5287041898,0.6687297906
3.8700,-0.4294135056,0.3001178768,-0.5279507016,0.6684320144
3.8750,-0.4297230298,0.3016401835,-0.5272155016,0.6681280807
3.8800,-0.4300190735,0.3031494747,-0.5264996691,0.6678189057
3.8850,-0.4303028679,0.3046453319,-0.5258025519,0.6675045618
3.8900,-0.4305757614,0.3061207651,-0.5251234044,0.6671881301
3.8950,-0.4308401416,0.307574651,-0.5244607156,0.6668699755
3.9000,-0.431093631,0.3090059629,-0.5238147569,0.666552096
3.9050,-0.4313390309,0.310411889,-0.5231859004,0.6662339029
3.9100,-0.4315772475,0.3117916034,-0.5225739811,0.6659155425
3.9150,-0.4318076116,0.3131437082,-0.5219802876,0.6655973137
3.9200,-0.4320342079,0.3144647904,-0.5214029241,0.6652798881
3.9250,-0.4322575724,0.315753063,-0.5208393614,0.6649659795
3.9300,-0.4324788098,0.3170066161,-0.5202910868,0.6646548499
3.9350,-0.4326986231,0.3182254572,-0.5197573133,0.6643468937
3.9400,-0.4329177474,0.3194099159,-0.5192374754,0.6640421476
3.9450,-0.4331375662,0.3205560063,-0.5187296894,0.6637433276
3.9500,-0.4333596107,0.3216641587,-0.5182329161,0.6634502706
3.9550,-0.4335842012,0.3227324068,-0.5177470241,0.6631640468
3.9600,-0.4338106083,0.3237618977,-0.5172733029,0.6628837906
3.9650,-0.4340387569,0.3247534307,-0.516811757,0.6626093681
3.9700,-0.4342674428,0.3257062377,-0.5163620243,0.6623424301
3.9750,-0.4344983693,0.3266203404,-0.5159234614,0.6620825495
3.9800,-0.4347313931,0.327494755,-0.5154956994,0.6618307828
3.9850,-0.4349639776,0.3283321558,-0.5150780881,0.6615881626
3.9900,-0.4351983153,0.3291305337,-0.5146702508,0.661354709
3.9950,-0.4354358977,0.3298893508,-0.5142708717,0.6611308991
4.0000,-0.4356779502,0.330607244,-0.5138790167,0.6609174911
4.0050,-0.435921684,0.3312850575,-0.5134966764,0.6607145067
4.0100,-0.4361664818,0.3319266042,-0.5131257865,0.6605190813
4.0150,-0.4364111545,0.3325324227,-0.5127658039,0.6603322819
4.0200,-0.4366565238,0.3331024036,-0.5124173423,0.6601532673
4.0250,-0.4369034973,0.3336358529,-0.5120805366,0.6599817995
4.0300,-0.4371528355,0.3341338298,-0.5117567444,0.6598158961
4.0350,-0.4374011828,0.3345990421,-0.5114471036,0.6596556272
4.0400,-0.4376506434,0.3350289345,-0.5111506516,0.6595017352
4.0450,-0.4379011511,0.335424009,-0.5108669168,0.6593544641
4.0500,-0.4381504448,0.3357883845,-0.5105977051,0.6592119023
4.0550,-0.4383969594,0.3361243697,-0.5103441055,0.6590731432
4.0600,-0.4386414709,0.3364323087,-0.5101045223,0.6589387969
4.0650,-0.4388844693,0.3367116527,-0.5098783578,0.6588093394
4.0700,-0.4391264514,0.336962614,-0.509664543,0.6586852132
4.0750,-0.4393658992,0.3371878459,-0.5094644503,0.6585650591
4.0800,-0.4396009432,0.3373889955,-0.5092780652,0.6584493365
4.0850,-0.4398320367,0.3375675315,-0.5091039482,0.6583381435
4.0900,-0.44005736,0.3377262865,-0.5089419199,0.6582314164
4.0950,-0.4402766958,0.3378649854,-0.5087924757,0.6581290903
4.1000,-0.4404890606,0.3379850564,-0.5086551537,0.6580314762
4.1050,-0.4406934728,0.3380876714,-0.5085303295,0.657938366
4.1100,-0.4408914603,0.3381745864,-0.50841575,0.6578495987
4.1150,-0.4410815369,0.3382453503,-0.5083105248,0.6577671102
4.1200,-0.4412642429,0.3382993976,-0.5082144609,0.6576909967
4.1250,-0.4414371611,0.338340731,-0.5081278272,0.6576206306
4.1300,-0.4416018901,0.3383681583,-0.5080504972,0.6575556649
4.1350,-0.4417583743,0.3383825659,-0.5079824525,0.6574957079
4.1400,-0.4419058506,0.338384637,-0.5079239009,0.6574407711
4.1450,-0.4420440715,0.3383742095,-0.507875148,0.6573908786
4.1500,-0.4421733174,0.3383523487,-0.5078361912,0.6573453037
4.1550,-0.4422942187,0.3383197462,-0.5078083648,0.6573022426
4.1600,-0.4424088264,0.338275472,-0.5077893936,0.6572625557
4.1650,-0.4425174663,0.3382200121,-0.5077789099,0.6572260602
4.1700,-0.4426201861,0.3381529166,-0.5077777142,0.6571923377
4.1750,-0.4427175604,0.338074445,-0.507785789,0.6571608813
4.1800,-0.4428104808,0.3379853747,-0.5078016017,0.6571318725
4.1850,-0.4428980269,0.3378859194,-0.5078240839,0.6571066451
4.1900,-0.4429800747,0.337778427,-0.5078539408,0.6570835278
4.1950,-0.4430555908,0.3376642977,-0.5078918513,0.6570619704
4.2000,-0.4431245759,0.3375427066,-0.5079381839,0.6570421088
4.2050,-0.4431876664,0.337414264,-0.5079906079,0.6570249988
4.2100,-0.4432450813,0.3372783359,-0.508048668,0.6570111666
4.2150,-0.4432974094,0.3371360697,-0.5081103381,0.6570011885
4.2200,-0.4433432337,0.336988952,-0.5081765654,0.6569945218
4.2250,-0.4433819558,0.3368393119,-0.5082491214,0.6569890028
4.2300,-0.4434141373,0.3366862328,-0.5083263217,0.6569860228
4.2350,-0.443441391,0.3365286413,-0.5084066793,0.6569861907
4.2400,-0.4434641859,0.3363661326,-0.5084912873,0.6569885474
4.2450,-0.4434819411,0.3361999298,-0.5085810864,0.656992126
4.2500,-0.4434965673,0.336030095,-0.5086750193,0.6569964191
4.2550,-0.4435080116,0.3358559161,-0.5087732846,0.6570016684
4.2600,-0.4435162598,0.3356787685,-0.5088756552,0.6570073509
4.2650,-0.4435213056,0.3354987197,-0.5089819476,0.6570135748
4.2700,-0.4435244356,0.3353158553,-0.5090928976,0.6570188535
4.2750,-0.4435257352,0.3351310356,-0.509207961,0.6570231074
4.2800,-0.4435251968,0.3349436682,-0.5093274632,0.6570263877
4.2850,-0.4435239768,0.3347531968,-0.5094492557,0.6570298586
4.2900,-0.4435218226,0.3345595123,-0.5095725074,0.6570343867
4.2950,-0.4435173574,0.3343632132,-0.5096980728,0.6570399303
4.3000,-0.4435116172,0.3341642156,-0.509826153,0.6570456728
4.3050,-0.4435053305,0.3339642473,-0.5099548153,0.6570517405
4.3100,-0.4434983343,0.3337612704,-0.5100846143,0.6570588468
4.3150,-0.443489709,0.3335558088,-0.5102148467,0.6570678889
4.3200,-0.4434793412,0.3333504363,-0.5103456945,0.6570774936
4.3250,-0.4434677974,0.333145049,-0.5104771931,0.6570873034
4.3300,-0.4434529074,0.3329397973,-0.5106102654,0.657097989
4.3350,-0.4434367346,0.3327332847,-0.5107452237,0.6571086213
4.3400,-0.4434183455,0.3325267487,-0.5108824597,0.6571188969
4.3450,-0.4433988929,0.3323201921,-0.5110222552,0.6571278158
4.3500,-0.4433786421,0.3321119293,-0.5111644171,0.6571361996
4.3550,-0.4433577225,0.3319019996,-0.5113090504,0.6571438561
4.3600,-0.4433362205,0.3316889028,-0.5114580507,0.6571500055
4.3650,-0.4433138225,0.3314734176,-0.5116113923,0.6571544806
4.3700,-0.4432918392,0.3312546462,-0.5117697433,0.6571563243
4.3750,-0.4432691787,0.3310319315,-0.5119315679,0.6571577933
4.3800,-0.4432488252,0.3308043229,-0.5120962517,0.6571578257
4.3850,-0.4432301447,0.3305703552,-0.5122653429,0.6571563722
4.3900,-0.443214002,0.3303304404,-0.5124380916,0.6571532171
4.3950,-0.4431981979,0.3300857883,-0.5126155599,0.6571483984
4.4000,-0.4431839667,0.3298363001,-0.5127958141,0.6571426328
4.4050,-0.4431707082,0.3295825913,-0.5129790927,0.6571358227
4.4100,-0.443157951,0.3293229574,-0.5131647666,0.6571296238
4.4150,-0.4431472999,0.3290573995,-0.5133510643,0.6571243286
4.4200,-0.4431386484,0.3287867907,-0.5135376357,0.6571198378
4.4250,-0.4431323182,0.3285113154,-0.5137232383,0.6571168074
4.4300,-0.4431276558,0.3282309146,-0.5139070671,0.657116332
4.4350,-0.4431245217,0.3279475423,-0.5140875784,0.6571187332
4.4400,-0.4431225558,0.3276609335,-0.5142654759,0.6571238342
4.4450,-0.4431215557,0.3273725485,-0.5144389324,0.6571324723
4.4500,-0.4431220565,0.327081866,-0.5146089124,0.657143792
4.4550,-0.4431234679,0.3267900205,-0.5147729141,0.6571595861
4.4600,-0.4431244217,0.3264970517,-0.5149318747,0.6571800259
4.4650,-0.4431253339,0.3262034807,-0.5150867689,0.6572038102
4.4700,-0.4431268165,0.3259087616,-0.5152354883,0.6572324514
4.4750,-0.4431274559,0.3256139147,-0.5153788922,0.6572657255
4.4800,-0.4431270635,0.3253205445,-0.5155167798,0.6573031254
4.4850,-0.4431256524,0.3250276211,-0.5156515205,0.6573432977
4.4900,-0.4431238533,0.3247355149,-0.5157819234,0.6573865708
4.4950,-0.443120066,0.3244440971,-0.5159077278,0.6574342943
4.5000,-0.4431164634,0.3241531601,-0.5160284465,0.6574854911
4.5050,-0.4431108582,0.3238629025,-0.5161455056,0.6575404206
4.5100,-0.4431049668,0.3235736397,-0.5162592629,0.657597492
4.5150,-0.4430988879,0.3232845356,-0.5163702424,0.6576566409
4.5200,-0.4430919118,0.3229951681,-0.5164781309,0.6577187996
4.5250,-0.4430861191,0.3227034503,-0.5165818729,0.6577844197
4.5300,-0.4430817307,0.3224104781,-0.5166817502,0.6578525918
4.5350,-0.4430783708,0.3221160348,-0.5167783874,0.6579231838
4.5400,-0.4430763701,0.3218205855,-0.5168717709,0.6579957549
4.5450,-0.4430761645,0.3215247154,-0.5169610575,0.6580703874
4.5500,-0.4430768465,0.321227363,-0.5170491832,0.6581459044
4.5550,-0.4430787924,0.3209290319,-0.5171353028,0.6582224691
4.5600,-0.4430810018,0.3206306821,-0.5172204651,0.6582994622
4.5650,-0.4430850587,0.3203309293,-0.5173043502,0.6583767431
4.5700,-0.4430897449,0.3200300982,-0.5173860805,0.6584556613
4.5750,-0.443096322,0.3197251528,-0.5174670652,0.6585357337
4.5800,-0.4431041658,0.3194171736,-0.5175471856,0.6586169434
4.5850,-0.443113497,0.319105388,-0.5176282368,0.6586981013
4.5900,-0.4431234054,0.3187899641,-0.517711302,0.6587788811
4.5950,-0.4431353875,0.3184703641,-0.5177968006,0.6588582009
4.6000,-0.4431480159,0.3181463824,-0.5178858324,0.6589362488
4.6050,-0.443159495,0.317818198,-0.5179791268,0.6590135653
4.6100,-0.4431707756,0.3174863657,-0.5180761061,0.6590896901
4.6150,-0.4431841689,0.3171495379,-0.5181775942,0.6591630632
4.6200,-0.4431984477,0.3168059108,-0.5182843079,0.6592348042
4.6250,-0.4432125034,0.3164577682,-0.5183959743,0.6593047638
4.6300,-0.4432257891,0.3161058879,-0.5185127828,0.6593727789
4.6350,-0.4432392702,0.3157492346,-0.5186354645,0.6594381132
4.6400,-0.4432519097,0.3153885824,-0.518764348,0.6595008248
4.6450,-0.4432639514,0.3150227393,-0.518898687,0.6595618968
4.6500,-0.4432753181,0.3146513234,-0.5190401015,0.6596202772
4.6550,-0.4432872754,0.3142742239,-0.5191877891,0.6596757865
4.6600,-0.4433002835,0.3138924193,-0.5193405116,0.6597286115
4.6650,-0.4433161381,0.3135057065,-0.5194979349,0.6597778939
4.6700,-0.4433328167,0.3131143826,-0.5196612809,0.6598238782
4.6750,-0.4433521316,0.3127189505,-0.5198306728,0.6598649991
4.6800,-0.4433727785,0.3123193693,-0.5200057174,0.6599024509
4.6850,-0.4433959472,0.3119175259,-0.5201867546,0.6599342629
4.6900,-0.4434208227,0.311513173,-0.5203738396,0.6599610474
4.6950,-0.4434476707,0.3111065301,-0.5205666781,0.6599827452
4.7000,-0.4434773913,0.3106964433,-0.5207646199,0.6599997986
4.7050,-0.4435102676,0.3102837344,-0.5209666946,0.6600123861
4.7100,-0.4435466077,0.3098690671,-0.521172846,0.6600200244
4.7150,-0.4435845408,0.3094528301,-0.5213830155,0.660023827
4.7200,-0.443624178,0.3090356363,-0.5215969198,0.6600236491
4.7250,-0.4436663209,0.308616279,-0.5218136954,0.6600201931
4.7300,-0.4437119255,0.3081958987,-0.5220312997,0.6600138918
4.7350,-0.4437592475,0.3077727903,-0.522250572,0.6600060453
4.7400,-0.4438094284,0.3073486582,-0.5224693691,0.6599967818
4.7450,-0.4438621389,0.3069222017,-0.5226888236,0.6599860283
4.7500,-0.4439168406,0.3064960942,-0.5229075771,0.6599739758
4.7550,-0.4439713964,0.3060705117,-0.5231278892,0.6599601902
4.7600,-0.4440273072,0.3056471886,-0.5233475507,0.6599446096
4.7650,-0.4440825825,0.3052253401,-0.5235673545,0.659928312
4.7700,-0.4441378192,0.3048063599,-0.5237871298,0.6599103903
4.7750,-0.4441931771,0.3043890603,-0.5240072693,0.6598909781
4.7800,-0.444247974,0.3039741337,-0.5242263285,0.6598713663
4.7850,-0.4443020348,0.3035613524,-0.5244439364,0.6598520779
4.7900,-0.4443555217,0.3031515259,-0.5246601282,0.6598326095
4.7950,-0.4444084718,0.3027440102,-0.5248758309,0.6598125011
4.8000,-0.4444603185,0.302339568,-0.525090022,0.6597926036
4.8050,-0.4445116486,0.3019376155,-0.5253024997,0.6597729568
4.8100,-0.4445602806,0.3015396842,-0.5255153634,0.6597526647
4.8150,-0.4446057166,0.301146617,-0.5257269331,0.6597330245
4.8200,-0.4446494721,0.3007572567,-0.5259381715,0.6597127855
4.8250,-0.44468935,0.3003729751,-0.5261512282,0.6596910966
4.8300,-0.4447244804,0.2999934175,-0.5263654085,0.6596692677
4.8350,-0.4447546327,0.2996198864,-0.5265811546,0.6596465174
4.8400,-0.4447792387,0.2992507042,-0.5267993822,0.6596232681
4.8450,-0.4447975641,0.2988857314,-0.5270207824,0.6595995311
4.8500,-0.4448103801,0.2985226206,-0.5272428542,0.6595778525
4.8550,-0.4448174115,0.2981622318,-0.5274665646,0.6595572585
4.8600,-0.4448196603,0.2978022736,-0.5276908536,0.6595389592
4.8650,-0.4448153459,0.2974416825,-0.5279182242,0.659522632
4.8700,-0.4448066928,0.2970805512,-0.5281478153,0.6595074202
4.8750,-0.444792283,0.2967189438,-0.5283800196,0.6594939335
4.8800,-0.4447729064,0.2963579508,-0.5286146905,0.6594812626
4.8850,-0.4447480926,0.2959959111,-0.5288531142,0.659469437
4.8900,-0.444718278,0.2956334598,-0.5290950709,0.6594580477
4.8950,-0.4446832201,0.2952699148,-0.5293404167,0.6594476738
4.9000,-0.4446427312,0.2949057842,-0.5295898981,0.6594376088
4.9050,-0.4445977485,0.2945394247,-0.5298439521,0.659427597
4.9100,-0.4445489704,0.2941702982,-0.5301035436,0.6594166222
4.9150,-0.4444947319,0.2937979204,-0.5303694161,0.6594054123
4.9200,-0.444436592,0.2934213817,-0.5306409657,0.6593937928
4.9250,-0.4443756112,0.2930400108,-0.5309169917,0.6593822989
4.9300,-0.4443119695,0.2926520348,-0.5311986879,0.6593706198
4.9350,-0.4442462993,0.2922577554,-0.5314839473,0.6593598743
4.9400,-0.4441805921,0.2918554124,-0.5317745477,0.6593480495
4.9450,-0.4441131104,0.2914467733,-0.53206971,0.6593361413
4.9500,-0.4440433954,0.2910321299,-0.5323706193,0.6593233548
4.9550,-0.4439721862,0.2906084898,-0.5326774477,0.659310352
4.9600,-0.4438988583,0.2901773874,-0.5329912471,0.6592960017
4.9650,-0.4438218426,0.2897372456,-0.5333135828,0.6592807618
4.9700,-0.443741484,0.2892879956,-0.5336434223,0.659265234
4.9750,-0.443658476,0.2888272526,-0.5339806478,0.6592500608
4.9800,-0.4435738528,0.2883548514,-0.5343265179,0.6592335619
4.9850,-0.4434860372,0.2878706802,-0.5346795847,0.6592179822
4.9900,-0.4433967491,0.2873714891,-0.5350397307,0.6592036383
4.9950,-0.4433065849,0.2868562396,-0.5354071477,0.659190379
5.0000,-0.4432147458,0.286324371,-0.5357840043,0.6591771723
5.0050,-0.4431208799,0.2857758971,-0.5361703425,0.6591641573
5.0100,-0.4430256023,0.2852093928,-0.5365677982,0.6591501467
5.0150,-0.4429288816,0.2846253841,-0.536976627,0.6591346589
5.0200,-0.4428298766,0.2840216281,-0.5373982574,0.6591179925
5.0250,-0.4427280019,0.2833995857,-0.5378345112,0.659098346
5.0300,-0.4426209171,0.2827581577,-0.5382883517,0.6590752601
5.0350,-0.4425093761,0.2820963819,-0.5387596042,0.6590486873
5.0400,-0.4423921615,0.2814130565,-0.539250756,0.6590178216
5.0450,-0.4422702265,0.2807081179,-0.5397605793,0.6589829408
5.0500,-0.442142188,0.279980366,-0.5402913481,0.6589435024
5.0550,-0.4420082284,0.2792295947,-0.5408428941,0.658899479
5.0600,-0.4418676464,0.2784526562,-0.5414169031,0.6588511503
5.0650,-0.4417207272,0.2776496323,-0.5420122922,0.6587990255
5.0700,-0.4415667574,0.2768201533,-0.5426306004,0.6587423115
5.0750,-0.4414041985,0.2759650556,-0.5432719749,0.6586813972
5.0800,-0.4412329304,0.2750825897,-0.5439376014,0.6586159395
5.0850,-0.4410519215,0.2741741945,-0.5446274443,0.6585458682
5.0900,-0.4408603575,0.273237954,-0.5453435632,0.6584706248
5.0950,-0.4406577784,0.2722737271,-0.5460861885,0.658390169
5.1000,-0.4404424396,0.2712816852,-0.5468573396,0.658303695
5.1050,-0.4402131181,0.2702618759,-0.5476568919,0.6582118639
5.1100,-0.4399702465,0.2692134167,-0.5484838655,0.6581153149
5.1150,-0.439714418,0.2681353507,-0.5493396012,0.6580126647
5.1200,-0.4394435782,0.267028459,-0.5502239131,0.6579048481
5.1250,-0.4391589431,0.2658905032,-0.5511352903,0.6577929422
5.1300,-0.4388597085,0.2647222671,-0.5520729211,0.6576775558
5.1350,-0.4385475101,0.2635208028,-0.5530374749,0.6575579208
5.1400,-0.4382224124,0.2622873203,-0.5540262553,0.6574354624
5.1450,-0.4378852405,0.2610207347,-0.5550390534,0.657309928
5.1500,-0.4375369826,0.2597226512,-0.5560758227,0.6571797416
5.1550,-0.4371768451,0.2583907876,-0.5571350903,0.6570472572
5.1600,-0.4368049384,0.2570270333,-0.5582166395,0.656911511
5.1650,-0.4364214555,0.2556335042,-0.559319177,0.656772322
5.1700,-0.4360247513,0.2542087125,-0.5604437251,0.6566301681
5.1750,-0.4356144364,0.2527545947,-0.5615878329,0.6564863164
5.1800,-0.4351907592,0.2512704337,-0.5627532942,0.6563390147
5.1850,-0.4347528823,0.249757664,-0.5639377052,0.6561899917
5.1900,-0.4343009407,0.2482161719,-0.5651411538,0.6560387955
5.1950,-0.4338348527,0.2466471721,-0.5663621755,0.6558859498
5.2000,-0.4333547397,0.2450495276,-0.5676002905,0.6557318879
5.2050,-0.4328620764,0.2434242951,-0.5688557899,0.655574653
5.2100,-0.4323558368,0.2417721601,-0.5701260231,0.655416639
5.2150,-0.4318370111,0.2400934825,-0.5714101679,0.6552574574
5.2200,-0.4313069041,0.2383888865,-0.5727062402,0.6550974398
5.2250,-0.4307654816,0.236657614,-0.5740159123,0.6549351159
5.2300,-0.4302128471,0.2349031019,-0.5753378112,0.654770068
5.2350,-0.4296481165,0.2331249214,-0.5766728561,0.654601928
5.2400,-0.4290697218,0.2313265988,-0.5780206131,0.6544305535
5.2450,-0.4284786593,0.2295069106,-0.5793806255,0.6542558424
5.2500,-0.4278755126,0.2276664575,-0.5807514776,0.654078169
5.2550,-0.4272595895,0.225807926,-0.5821320936,0.6538977362
5.2600,-0.4266329323,0.2239292463,-0.5835219698,0.6537141152
5.2650,-0.4259966698,0.2220313505,-0.5849182372,0.6535285552
5.2700,-0.4253511527,0.2201136099,-0.5863214452,0.6533403083
5.2750,-0.4246972234,0.2181793029,-0.5877304305,0.6531485293
5.2800,-0.4240317096,0.216229598,-0.5891454684,0.6529544297
5.2850,-0.4233563092,0.2142625483,-0.5905669166,0.652757009
5.2900,-0.4226698429,0.2122817079,-0.5919948391,0.6525555845
5.2950,-0.4219738229,0.210286742,-0.5934273143,0.6523508271
5.3000,-0.4212665758,0.2082809308,-0.5948636546,0.6521432039
5.3050,-0.4205490875,0.2062639582,-0.5963038507,0.6519320227
5.3100,-0.4198206871,0.2042393097,-0.5977453204,0.6517188251
5.3150,-0.4190831759,0.2022058379,-0.5991870835,0.6515035915
5.3200,-0.4183383729,0.2001656957,-0.6006277265,0.6512856778
5.3250,-0.4175839601,0.1981183131,-0.6020662426,0.6510675923
5.3300,-0.4168219007,0.1960659724,-0.6035019966,0.6508478914
5.3350,-0.4160520131,0.1940088647,-0.6049352565,0.6506263277
5.3400,-0.415273189,0.1919489378,-0.6063642182,0.6504046576
5.3450,-0.4144855485,0.1898856847,-0.6077908014,0.6501811275
5.3500,-0.4136899151,0.1878185635,-0.6092122779,0.6499578769
5.3550,-0.4128879437,0.1857476755,-0.6106281963,0.6497342171
5.3600,-0.4120806386,0.1836748018,-0.6120371585,0.649510301
5.3650,-0.4112680949,0.1815985348,-0.6134404063,0.6492852949
5.3700,-0.4104517061,0.1795190265,-0.6148357865,0.649060299
5.3750,-0.4096335855,0.1774351991,-0.6162218433,0.6488356615
5.3800,-0.4088144025,0.1753459518,-0.6175983494,0.6486114864
5.3850,-0.4079956562,0.1732517658,-0.6189641011,0.6483878559
5.3900,-0.4071770683,0.1711526384,-0.6203183573,0.6481656772
5.3950,-0.4063586095,0.1690498687,-0.6216600682,0.6479456629
5.4000,-0.4055414452,0.1669417747,-0.622988254,0.6477285044
5.4050,-0.4047266404,0.164829662,-0.6243034468,0.6475127299
5.4100,-0.4039133089,0.1627131813,-0.6256048778,0.6472997733
5.4150,-0.4031003194,0.1605934718,-0.6268933396,0.647089337
5.4200,-0.4022878379,0.1584729064,-0.6281682636,0.6468813384
5.4250,-0.4014764793,0.1563528464,-0.6294294705,0.646675317
5.4300,-0.4006672812,0.154232162,-0.6306783372,0.6464696474
5.4350,-0.3998586145,0.1521121665,-0.6319132832,0.6462666475
5.4400,-0.3990504897,0.1499941729,-0.6331361079,0.646064334
5.4450,-0.3982413333,0.147879652,-0.634346967,0.6458632784
5.4500,-0.3974300663,0.1457690012,-0.6355453659,0.645664641
5.4550,-0.396618373,0.1436627053,-0.6367321581,0.6454665383
5.4600,-0.3958061178,0.1415600694,-0.6379067965,0.6452698527
5.4650,-0.3949945131,0.1394602222,-0.6390676783,0.6450757193
5.4700,-0.3941828396,0.1373647696,-0.6402155064,0.6448836441
5.4750,-0.3933703668,0.1352736383,-0.641353169,0.6446913292
5.4800,-0.3925572649,0.133186113,-0.642478404,0.6445011664
5.4850,-0.3917444136,0.1311024505,-0.6435930881,0.6443107937
5.4900,-0.3909326607,0.1290214671,-0.6446972932,0.6441199546
5.4950,-0.3901235557,0.1269418032,-0.6457908462,0.6439282358
5.5000,-0.3893180057,0.1248650864,-0.6468731451,0.643735454
5.5050,-0.388514813,0.1227905821,-0.6479446258,0.6435421314
5.5100,-0.387715003,0.1207173409,-0.6490069299,0.6433462559
5.5150,-0.386918468,0.1186464533,-0.6500603615,0.6431474517
5.5200,-0.3861232075,0.1165791856,-0.6511074807,0.6429441738
5.5250,-0.3853280005,0.1145170591,-0.6521474487,0.6427378006
5.5300,-0.3845328476,0.1124573796,-0.6531805456,0.6425286
5.5350,-0.3837365935,0.110403922,-0.6542088718,0.642314528
5.5400,-0.3829385909,0.1083537674,-0.6552320346,0.6420969378
5.5450,-0.3821388707,0.10630681,-0.6562515748,0.6418742994
5.5500,-0.3813373811,0.1042637878,-0.6572679927,0.6416460474
5.5550,-0.3805329282,0.1022234536,-0.6582828939,0.6414114808
5.5600,-0.3797244257,0.1001867477,-0.6592968809,0.6411704914
5.5650,-0.3789118363,0.09815344885,-0.6603102604,0.6409228353
5.5700,-0.3780942442,0.09612549537,-0.6613236308,0.6406681566
5.5750,-0.3772697816,0.09410193799,-0.6623381415,0.6404065298
5.5800,-0.3764387824,0.09208227416,-0.6633546538,0.6401369394
5.5850,-0.3756012024,0.09006943301,-0.664372824,0.6398593476
5.5900,-0.3747558529,0.08806209173,-0.6653928305,0.6395744678
5.5950,-0.3739025219,0.08606100191,-0.6664162142,0.6392807188
5.6000,-0.3730405305,0.08406480679,-0.6674430071,0.6389786406
5.6050,-0.3721694419,0.08207510385,-0.6684734754,0.6386679861
5.6100,-0.3712876888,0.08008930793,-0.6695083595,0.6383492081
5.6150,-0.3703956464,0.07810701136,-0.6705482206,0.6380215073
5.6200,-0.3694936258,0.07612685462,-0.6715914099,0.6376865536
5.6250,-0.3685832085,0.07414906184,-0.6726385165,0.6373427344
5.6300,-0.367664507,0.07217080443,-0.6736889945,0.6369908351
5.6350,-0.3667370121,0.07019250657,-0.6747421397,0.6366317781
5.6400,-0.3658019781,0.06821389529,-0.6757989452,0.6362637527
5.6450,-0.3648582866,0.06623565308,-0.6768579422,0.6358888229
5.6500,-0.3639056138,0.06425783262,-0.6779205832,0.635505561
5.6550,-0.3629419449,0.06228100053,-0.6789876215,0.6351141878
5.6600,-0.3619660271,0.06030502272,-0.6800606394,0.6347136568
5.6650,-0.3609786002,0.05833118532,-0.6811388706,0.6343041557
5.6700,-0.3599784114,0.05636032707,-0.6822233063,0.6338851767
5.6750,-0.3589658815,0.05439129163,-0.6833139406,0.6334565036
5.6800,-0.3579428276,0.05242510772,-0.6844109321,0.6330167583
5.6850,-0.356909954,0.05045870687,-0.6855132029,0.6325668757
5.6900,-0.355867414,0.04849240034,-0.6866194924,0.6321080156
5.6950,-0.3548193415,0.04652239044,-0.6877292312,0.6316386678
5.7000,-0.3537685633,0.04454965559,-0.6888411197,0.6311584932
5.7050,-0.3527157599,0.04257155388,-0.6899542523,0.6306682053
5.7100,-0.3516620013,0.0405859853,-0.6910684094,0.6301674921
5.7150,-0.3506080713,0.03859341522,-0.6921832337,0.6296561758
5.7200,-0.3495535697,0.0365901006,-0.6932990374,0.6291342553
5.7250,-0.3484980248,0.03457719275,-0.6944162827,0.6286012812
5.7300,-0.347439858,0.03255628271,-0.6955339503,0.6280590398
5.7350,-0.3463801993,0.0305275273,-0.6966534961,0.6275051665
5.7400,-0.3453189117,0.02848871181,-0.6977737921,0.6269409682
5.7450,-0.3442578387,0.02644037192,-0.6988947808,0.6263653348
5.7500,-0.3431957935,0.02438420483,-0.7000159939,0.6257792472
5.7550,-0.3421314317,0.02232293327,-0.7011372214,0.6251834666
5.7600,-0.3410649484,0.02025643707,-0.702258312,0.6245779703
5.7650,-0.3399950156,0.01818503931,-0.7033800902,0.6239624528
5.7700,-0.3389244085,0.01610793177,-0.7044990893,0.623339244
5.7750,-0.3378552478,0.01402498462,-0.7056141216,0.6227084733
5.7800,-0.336787859,0.01193617923,-0.7067247635,0.6220703934
5.7850,-0.3357216706,0.009843601314,-0.7078294836,0.6214269752
5.7900,-0.3346559154,0.00774853232,-0.7089277843,0.6207791678
5.7950,-0.333589891,0.005652195983,-0.7100197055,0.6201272894
5.8000,-0.3325238139,0.003554789561,-0.7111041946,0.6194724377
5.8050,-0.3314596329,0.001456656498,-0.7121790483,0.6188161222
5.8100,-0.3303976384,-0.0006423633416,-0.7132426962,0.6181600474
5.8150,-0.3293372256,-0.002740845692,-0.7142940093,0.6175059092
5.8200,-0.3282798255,-0.004838021269,-0.7153321521,0.6168540037
5.8250,-0.3272278442,-0.006936133959,-0.7163565408,0.6162038092
5.8300,-0.3261835693,-0.00903434227,-0.7173644738,0.6155573665
5.8350,-0.3251482201,-0.01113310215,-0.7183539225,0.6149165236
5.8400,-0.3241218409,-0.01323118134,-0.7193250051,0.6142812915
5.8450,-0.3231023792,-0.01532595092,-0.7202777689,0.6136529177
5.8500,-0.3220895232,-0.0174166155,-0.7212120201,0.6130319915
5.8550,-0.3210831851,-0.01950180466,-0.7221269961,0.612419684
5.8600,-0.3200814341,-0.02157978446,-0.7230229985,0.6118169106
5.8650,-0.3190830574,-0.02364765675,-0.7239006333,0.6112239066
5.8700,-0.3180877954,-0.02570583519,-0.724759804,0.6106411312
5.8750,-0.3170958431,-0.02775343053,-0.7256020877,0.6100668683
5.8800,-0.3161075847,-0.02979054949,-0.7264252842,0.6095037526
5.8850,-0.3151256127,-0.03181762462,-0.7272291355,0.6089509598
5.8900,-0.3141517489,-0.03383599451,-0.7280140885,0.6084071753
5.8950,-0.3131856427,-0.03584380734,-0.7287793386,0.607873877
5.9000,-0.3122271298,-0.03784131016,-0.7295259305,0.6073501226
5.9050,-0.3112765425,-0.0398279775,-0.7302537547,0.6068361393
5.9100,-0.3103349285,-0.04180333851,-0.7309635279,0.6063307958
5.9150,-0.3093992828,-0.0437677077,-0.7316576442,0.60583295
5.9200,-0.3084687683,-0.04572128595,-0.7323377961,0.6053411728
5.9250,-0.3075427431,-0.04766374129,-0.7330045355,0.6048553379
5.9300,-0.3066190591,-0.04959431488,-0.7336593572,0.6043749698
5.9350,-0.3057001042,-0.05151403347,-0.7343031334,0.6038978878
5.9400,-0.3047827996,-0.05342447589,-0.734936316,0.6034251254
5.9450,-0.3038678411,-0.05532639525,-0.7355612244,0.6029535723
5.9500,-0.302954422,-0.05721948695,-0.736178453,0.602483057
5.9550,-0.3020423599,-0.05910611518,-0.7367884704,0.6020129815
5.9600,-0.3011320392,-0.06098721174,-0.7373906127,0.6015439629
5.9650,-0.3002238779,-0.06286299233,-0.7379862877,0.6010741273
5.9700,-0.2993164053,-0.06473633455,-0.7385762588,0.6006030356
5.9750,-0.298408758,-0.06660482568,-0.7391623695,0.6001291544
5.9800,-0.297497933,-0.06847021218,-0.7397441394,0.5996544155
5.9850,-0.2965833497,-0.07033194189,-0.7403234419,0.599176882
5.9900,-0.2956649202,-0.07219067649,-0.7409018245,0.5986946197
5.9950,-0.2947377033,-0.07404294059,-0.7414805241,0.5982089615
6.0000,-0.2938000408,-0.07589039039,-0.7420614324,0.5977181737
6.0050,-0.2928510663,-0.07773330419,-0.7426453103,0.5972216753
6.0100,-0.2918921677,-0.07957037788,-0.7432324615,0.5967185481
6.0150,-0.2909252328,-0.08140464343,-0.7438213602,0.5962093399
6.0200,-0.2899519164,-0.08323525697,-0.7444121268,0.5956931791
6.0250,-0.2889729278,-0.0850653637,-0.7450039958,0.5951702085
6.0300,-0.2879893265,-0.08689596705,-0.7455980338,0.5946383865
6.0350,-0.2870002054,-0.08872694857,-0.7461936581,0.594098843
6.0400,-0.2860051856,-0.09055837147,-0.7467916527,0.5935507078
6.0450,-0.2850032627,-0.09239241393,-0.747391683,0.5929944808
6.0500,-0.2839956518,-0.09423142367,-0.7479947005,0.5924279168
6.0550,-0.2829839267,-0.09607569612,-0.7485986934,0.5918526456
6.0600,-0.2819667728,-0.09792546508,-0.7492053423,0.5912670271
6.0650,-0.2809434593,-0.09977923392,-0.7498140349,0.5906723206
6.0700,-0.2799109351,-0.1016369404,-0.7504285848,0.5900650302
6.0750,-0.2788678761,-0.10349968,-0.7510484548,0.589446132
6.0800,-0.2778165695,-0.1053689162,-0.7516734135,0.588814423
6.0850,-0.2767588416,-0.1072477282,-0.7523034835,0.5881682898
6.0900,-0.2756938363,-0.1091354408,-0.7529376629,0.5875093531
6.0950,-0.274622136,-0.1110340532,-0.7535768402,0.5868356391
6.1000,-0.2735432515,-0.1129446046,-0.7542207075,0.5861473622
6.1050,-0.272459801,-0.1148669587,-0.7548683039,0.5854443462
6.1100,-0.2713729958,-0.1168028073,-0.7555196007,0.5847255205
6.1150,-0.2702847299,-0.1187532131,-0.7561725747,0.5839921886
6.1200,-0.2691948776,-0.1207168249,-0.7568258487,0.5832462609
6.1250,-0.2680992211,-0.1226915225,-0.7574804165,0.5824886408
6.1300,-0.2669983155,-0.1246756027,-0.7581369634,0.5817183496
6.1350,-0.2658884549,-0.1266702088,-0.7587954373,0.5809367195
6.1400,-0.2647719227,-0.1286737621,-0.7594542121,0.5801449747
6.1450,-0.2636495889,-0.1306869805,-0.7601124836,0.5793434384
6.1500,-0.2625201192,-0.13270912,-0.7607704394,0.5785324667
6.1550,-0.2613837722,-0.1347395035,-0.7614268203,0.5777135857
6.1600,-0.260241203,-0.1367773393,-0.7620809598,0.5768874122
6.1650,-0.2590923049,-0.1388244115,-0.7627328389,0.5760534496
6.1700,-0.2579373456,-0.140878632,-0.7633813213,0.5752134343
6.1750,-0.2567762372,-0.1429395264,-0.7640242359,0.5743702836
6.1800,-0.2556103026,-0.1450054318,-0.7646616,0.5735237009
6.1850,-0.2544366724,-0.1470772463,-0.7652935687,0.5726744425
6.1900,-0.2532568713,-0.1491522938,-0.7659190361,0.5718239069
6.1950,-0.2520718263,-0.1512323183,-0.7665378626,0.5709713526
6.2000,-0.250885612,-0.1533176455,-0.7671475669,0.5701181631
6.2050,-0.2496997788,-0.1554104699,-0.767747418,0.569264006
6.2100,-0.2485151977,-0.1575092204,-0.7683371795,0.5684092017
6.2150,-0.247333338,-0.1596145037,-0.7689168802,0.567552871
6.2200,-0.2461552196,-0.1617248827,-0.7694864686,0.5666950193
6.2250,-0.2449803885,-0.1638421145,-0.7700459779,0.5658352788
6.2300,-0.2438114051,-0.1659675517,-0.770594771,0.5649729812
6.2350,-0.2426474576,-0.1681007137,-0.7711330599,0.5641082921
6.2400,-0.2414915567,-0.1702421214,-0.7716600278,0.5632408452
6.2450,-0.2403449151,-0.1723912325,-0.7721753738,0.5623706757
6.2500,-0.2392073727,-0.174547893,-0.7726800797,0.5614965364
6.2550,-0.2380831473,-0.1767118227,-0.7731731943,0.5606180145
6.2600,-0.2369682816,-0.1788818127,-0.77365638,0.5597348804
6.2650,-0.2358624796,-0.1810568602,-0.7741298738,0.5588472444
6.2700,-0.2347647593,-0.1832352548,-0.7745943858,0.5579550938
6.2750,-0.2336724388,-0.1854182236,-0.7750516053,0.5570568039
6.2800,-0.2325849476,-0.1876027103,-0.775503329,0.5561511053
6.2850,-0.231499554,-0.189786969,-0.7759516535,0.5552367913
6.2900,-0.2304153141,-0.191970328,-0.7763972298,0.5543135554
6.2950,-0.2293322972,-0.1941549839,-0.7768402681,0.5533802829
6.3000,-0.2282476722,-0.1963390426,-0.7772823611,0.5524365228
6.3050,-0.2271597529,-0.1985222348,-0.7777234327,0.5514831195
6.3100,-0.2260687792,-0.2007052587,-0.7781647289,0.5505179025
6.3150,-0.2249736724,-0.2028896244,-0.7786068547,0.5495398191
6.3200,-0.2238731713,-0.2050743074,-0.7790496792,0.5485498419
6.3250,-0.2227660667,-0.2072569336,-0.7794948203,0.5475469553
6.3300,-0.2216509227,-0.2094390823,-0.7799412922,0.546532451
6.3350,-0.2205258196,-0.211619406,-0.7803908733,0.5455049723
6.3400,-0.219390483,-0.213797955,-0.7808426951,0.5444657343
6.3450,-0.2182452914,-0.2159734816,-0.7812971755,0.5434143645
6.3500,-0.2170872223,-0.2181444618,-0.7817550727,0.5423514894
6.3550,-0.2159111462,-0.2203118747,-0.7822188759,0.5412750549
6.3600,-0.2147177508,-0.222476086,-0.7826880016,0.5401853115
6.3650,-0.2135063446,-0.2246391304,-0.7831616578,0.5390826649
6.3700,-0.2122785556,-0.2268005227,-0.7836393408,0.537967212
6.3750,-0.2110313256,-0.2289582604,-0.7841214269,0.5368402765
6.3800,-0.2097614692,-0.231110428,-0.7846088724,0.5357023553
6.3850,-0.2084661224,-0.2332561491,-0.7851015352,0.5345549777
6.3900,-0.2071447488,-0.2353951376,-0.785600272,0.533397033
6.3950,-0.2057983914,-0.2375254287,-0.7861025676,0.5322325113
6.4000,-0.2044286818,-0.2396462629,-0.7866080149,0.5310615912
6.4050,-0.2030299197,-0.2417565925,-0.7871170209,0.5298862115
6.4100,-0.2016026099,-0.2438518538,-0.7876291717,0.5287087563
6.4150,-0.2001440398,-0.2459347164,-0.788144561,0.5275287951
6.4200,-0.1986552973,-0.2480057789,-0.7886619958,0.5263472836
6.4250,-0.1971398494,-0.2500657318,-0.7891792366,0.5251658234
6.4300,-0.1955981323,-0.2521160576,-0.7896952506,0.5239849953
6.4350,-0.1940346728,-0.2541566042,-0.7902079143,0.5228062915
6.4400,-0.1924506371,-0.2561897106,-0.7907166778,0.5216289101
6.4450,-0.1908480927,-0.2582156715,-0.7912198548,0.5204544302
6.4500,-0.1892308421,-0.2602350324,-0.7917158841,0.5192835209
6.4550,-0.1876007719,-0.2622484679,-0.7922042137,0.5181159862
6.4600,-0.1859616975,-0.2642576333,-0.7926829877,0.5169524459
6.4650,-0.1843151815,-0.2662624461,-0.7931516784,0.5157932132
6.4700,-0.1826640591,-0.2682652198,-0.7936089607,0.5146381553
6.4750,-0.1810113711,-0.2702670525,-0.794053692,0.5134874275
6.4800,-0.1793597676,-0.2722692941,-0.7944856558,0.5123397778
6.4850,-0.1777113541,-0.2742719155,-0.794904127,0.5111956766
6.4900,-0.1760683671,-0.2762751994,-0.795308615,0.5100550472
6.4950,-0.1744321616,-0.2782802649,-0.7956986373,0.5089176691
6.5000,-0.1728023342,-0.2802873031,-0.7960750049,0.5077824018
6.5050,-0.1711786392,-0.2822934652,-0.7964388848,0.5066491643
6.5100,-0.1695633955,-0.2843013874,-0.7967895747,0.5055169134
6.5150,-0.1679569728,-0.2863096193,-0.7971267622,0.504386937
6.5200,-0.1663589209,-0.2883178357,-0.7974503315,0.5032598771
6.5250,-0.1647731473,-0.2903259824,-0.7977611114,0.5021332921
6.5300,-0.1631996377,-0.2923327011,-0.798058826,0.5010085631
6.5350,-0.16164025,-0.2943384089,-0.7983435866,0.499884835
6.5400,-0.160093958,-0.296341261,-0.7986169264,0.498761252
6.5450,-0.1585615547,-0.2983425406,-0.7988774441,0.4976392179
6.5500,-0.1570441623,-0.3003421179,-0.7991250162,0.4965188333
6.5550,-0.1555388768,-0.3023396796,-0.7993607669,0.4953995764
6.5600,-0.1540488659,-0.3043361852,-0.7995844654,0.4942804021
6.5650,-0.1525714461,-0.3063313428,-0.7997967074,0.4931615244
6.5700,-0.1511068768,-0.3083261434,-0.7999972758,0.4920427419
6.5750,-0.1496571905,-0.3103198973,-0.800185726,0.4909247301
6.5800,-0.1482191943,-0.3123137787,-0.8003625077,0.4898071359
6.5850,-0.1467924863,-0.3143100364,-0.8005271484,0.4886895248
6.5900,-0.1453763752,-0.3163076876,-0.800680069,0.4875721315
6.5950,-0.1439692584,-0.318307769,-0.800822496,0.4864528206
6.6000,-0.1425735388,-0.3203109828,-0.8009526368,0.4853334255
6.6050,-0.1411874065,-0.322316735,-0.8010721597,0.4842121782
6.6100,-0.1398083421,-0.3243243791,-0.8011808418,0.4830906575
6.6150,-0.1384329387,-0.3263321233,-0.8012800273,0.4819688628
6.6200,-0.1370618935,-0.3283406945,-0.801370184,0.4808453534
6.6250,-0.1356947639,-0.3303513049,-0.8014506472,0.4797205504
6.6300,-0.1343316073,-0.3323617858,-0.8015224289,0.4785942526
6.6350,-0.1329727471,-0.3343736707,-0.801584755,0.4774666243
6.6400,-0.1316169132,-0.3363843208,-0.801638845,0.4763378414
6.6450,-0.1302623571,-0.3383938546,-0.801685755,0.4752065527
6.6500,-0.128909429,-0.3404034121,-0.8017250284,0.4740726263
6.6550,-0.127560028,-0.3424123167,-0.8017564011,0.4729364841
6.6600,-0.126212268,-0.3444184355,-0.8017798704,0.4718002163
6.6650,-0.1248670707,-0.3464222646,-0.8017973089,0.4706600734
6.6700,-0.123523094,-0.3484235572,-0.8018079753,0.4695178812
6.6750,-0.122182022,-0.3504229052,-0.8018111857,0.4683739569
6.6800,-0.120843251,-0.352419266,-0.8018077079,0.4672279628
6.6850,-0.1195082474,-0.3544123483,-0.8017974908,0.4660798751
6.6900,-0.1181780457,-0.3564040486,-0.8017796371,0.4649295831
6.6950,-0.1168498043,-0.3583954878,-0.801754924,0.4637756348
6.7000,-0.1155216663,-0.3603850792,-0.8017241344,0.462618365
6.7050,-0.1141975134,-0.3623741086,-0.8016865705,0.4614570142
6.7100,-0.1128743374,-0.3643650588,-0.8016422778,0.4602902849
6.7150,-0.111555047,-0.3663559774,-0.80159217,0.4591173732
6.7200,-0.1102375101,-0.3683484172,-0.8015362118,0.4579375897
6.7250,-0.1089204138,-0.3703433548,-0.801474243,0.4567506769
6.7300,-0.1076028193,-0.3723394528,-0.8014075387,0.4555556191
6.7350,-0.10628228,-0.3743377927,-0.8013358409,0.4543524667
6.7400,-0.1049577372,-0.3763374289,-0.8012592095,0.4531420222
6.7450,-0.1036285118,-0.3783394426,-0.8011784854,0.4519219316
6.7500,-0.1022946287,-0.3803438013,-0.8010931826,0.450692927
6.7550,-0.100954613,-0.3823513976,-0.8010032327,0.4494545538
6.7600,-0.09960878506,-0.3843616534,-0.8009089125,0.4482065631
6.7650,-0.09825601373,-0.3863742384,-0.8008101834,0.4469493862
6.7700,-0.09689523603,-0.3883876178,-0.8007078903,0.4456828984
6.7750,-0.09552589455,-0.3904017817,-0.800601587,0.4444078659
6.7800,-0.09414636804,-0.3924163045,-0.8004916778,0.4431241126
6.7850,-0.0927562787,-0.3944296044,-0.8003792339,0.4418310105
6.7900,-0.09135397215,-0.396441531,-0.8002635555,0.4405301419
6.7950,-0.08993784146,-0.3984505123,-0.8001456051,0.439221339
6.8000,-0.08850926477,-0.4004571001,-0.8000247123,0.4379048764
6.8050,-0.08706883102,-0.4024631732,-0.7999005271,0.4365793852
6.8100,-0.08561656598,-0.4044678006,-0.7997729651,0.4352456847
6.8150,-0.0841522395,-0.4064711954,-0.7996416948,0.4339040538
6.8200,-0.08267715281,-0.4084747015,-0.7995069984,0.4325522699
6.8250,-0.08118970342,-0.4104781628,-0.7993682487,0.4311917356
6.8300,-0.07969147916,-0.4124812568,-0.799225999,0.4298212227
6.8350,-0.07818120766,-0.4144838036,-0.7990798246,0.428441722
6.8400,-0.07666000054,-0.4164871244,-0.7989289961,0.4270528992
6.8450,-0.07512702398,-0.4184890542,-0.7987743071,0.4256553161
6.8500,-0.07358243806,-0.4204894085,-0.7986157686,0.4242489084
6.8550,-0.07202642208,-0.4224873924,-0.7984528609,0.4228352241
6.8600,-0.0704600885,-0.4244821788,-0.7982854604,0.421414973
6.8650,-0.06888511459,-0.4264737649,-0.7981125253,0.419989721
6.8700,-0.06730302589,-0.4284602913,-0.7979348417,0.4185595178
6.8750,-0.065714019,-0.4304414515,-0.7977515701,0.4171261883
6.8800,-0.06412166155,-0.4324170082,-0.797561574,0.4156915674
6.8850,-0.0625275171,-0.4343850169,-0.7973646826,0.4142578058
6.8900,-0.06093237571,-0.4363450984,-0.7971601461,0.4128267217
6.8950,-0.05933904131,-0.4382962258,-0.7969477223,0.4113995923
6.9000,-0.0577476856,-0.440237534,-0.7967282669,0.4099758372
6.9050,-0.05616251527,-0.4421695991,-0.7965010752,0.4085558158
6.9100,-0.05458512908,-0.4440916877,-0.796266312,0.4071400212
6.9150,-0.05301998353,-0.4460035519,-0.7960239924,0.4057283779
6.9200,-0.05146650945,-0.4479049312,-0.7957739645,0.4043218623
6.9250,-0.04992784438,-0.4497959593,-0.7955165527,0.4029196194
6.9300,-0.04840599504,-0.4516767259,-0.795253329,0.4015185397
6.9350,-0.04690464528,-0.4535482952,-0.7949832118,0.400119471
6.9400,-0.04542603447,-0.4554110022,-0.7947065186,0.3987215115
6.9450,-0.04397126873,-0.4572653478,-0.7944225673,0.3973257024
6.9500,-0.04254485331,-0.4591104345,-0.7941326951,0.3959303056
6.9550,-0.04114840025,-0.4609469106,-0.7938364383,0.3945357575
6.9600,-0.03978508043,-0.4627754181,-0.7935341636,0.3931406759
6.9650,-0.03845511721,-0.4645949128,-0.7932250643,0.3917483482
6.9700,-0.03716064765,-0.4664047031,-0.7929095271,0.3903590925
6.9750,-0.03590263996,-0.4682038399,-0.7925879364,0.3889736853
6.9800,-0.03468091022,-0.4699928005,-0.7922596913,0.3875933222
6.9850,-0.0334964291,-0.4717701132,-0.7919246895,0.3862204496
6.9900,-0.03234886748,-0.4735348495,-0.7915829064,0.3848568558
6.9950,-0.03123958207,-0.4752854848,-0.7912342679,0.3835050583
7.0000,-0.03016703549,-0.4770231519,-0.7908781548,0.3821656797
7.0050,-0.02912797886,-0.4787459955,-0.7905153874,0.380840196
7.0100,-0.0281227674,-0.4804527442,-0.7901461104,0.3795304925
7.0150,-0.02714894722,-0.4821426438,-0.7897704604,0.3782380542
7.0200,-0.02620498505,-0.4838158779,-0.7893882361,0.3769638017
7.0250,-0.0252911612,-0.4854722382,-0.7889998172,0.3757078008
7.0300,-0.02440450454,-0.4871116164,-0.7886056246,0.3744701085
7.0350,-0.02354335631,-0.4887338572,-0.7882065237,0.3732497866
7.0400,-0.02270685618,-0.4903400294,-0.7878027285,0.3720455821
7.0450,-0.02189347436,-0.491929497,-0.787394654,0.3708580652
7.0500,-0.02109934724,-0.4935022993,-0.7869833536,0.3696856763
7.0550,-0.02032385392,-0.4950601727,-0.7865688069,0.3685266319
7.0600,-0.01956374065,-0.4966025471,-0.7861521272,0.3673799168
7.0650,-0.01881742197,-0.4981306845,-0.785733765,0.3662433294
7.0700,-0.01808468874,-0.4996455374,-0.785313718,0.3651159341
7.0750,-0.01736133958,-0.5011474515,-0.7848926313,0.3639963915
7.0800,-0.01664469301,-0.5026354046,-0.7844716205,0.3628841149
7.0850,-0.01593369065,-0.5041126429,-0.7840496567,0.3617771366
7.0900,-0.01522317869,-0.5055784783,-0.7836283485,0.3606733544
7.0950,-0.01451311634,-0.5070330074,-0.7832066797,0.3595750209
7.1000,-0.01379766059,-0.5084757249,-0.782786018,0.358480281
7.1050,-0.01307451547,-0.5099079719,-0.7823651874,0.3573900262
7.1100,-0.01233838518,-0.5113290189,-0.7819447922,0.3563042811
7.1150,-0.01158755624,-0.5127383327,-0.7815240838,0.3552256143
7.1200,-0.01081892367,-0.5141354188,-0.7811033074,0.3541544088
7.1250,-0.01002834459,-0.5155185479,-0.7806825015,0.3530933175
7.1300,-0.009211569401,-0.5168884056,-0.7802613909,0.3520421637
7.1350,-0.008367225875,-0.5182438757,-0.7798403541,0.3510018475
7.1400,-0.007495038382,-0.5195840267,-0.7794198142,0.3499728802
7.1450,-0.006591484767,-0.5209095548,-0.7789999016,0.3489540676
7.1500,-0.005656748343,-0.522220703,-0.7785798495,0.3479467726
7.1550,-0.00468943015,-0.52351789,-0.7781599959,0.3469496344
7.1600,-0.00368711573,-0.5247995991,-0.7777409015,0.3459636918
7.1650,-0.002650377236,-0.5260668035,-0.7773229676,0.3449865182
7.1700,-0.001579842021,-0.5273185997,-0.7769065271,0.3440186719
7.1750,-0.0004763456434,-0.5285564078,-0.7764912093,0.3430587396
7.1800,0.0006597340654,-0.529779664,-0.7760780503,0.3421051479
7.1850,0.001827809661,-0.5309887368,-0.7756673579,0.3411565188
7.1900,0.003025345358,-0.5321844982,-0.7752588205,0.3402120932
7.1950,0.004250470982,-0.5333667675,-0.7748528391,0.3392711344
7.2000,0.005500820341,-0.5345368927,-0.7744485456,0.3383334177
7.2050,0.006774788355,-0.5356934398,-0.7740471856,0.3373982739
7.2100,0.008070675669,-0.5368374903,-0.7736481233,0.336465384
7.2150,0.009386208327,-0.5379683448,-0.7732511417,0.3355363333
7.2200,0.0107190907,-0.5390865379,-0.7728564577,0.3346097749
7.2250,0.01206889877,-0.5401917159,-0.7724639353,0.3336865601
7.2300,0.01343124514,-0.5412855225,-0.7720723078,0.3327670902
7.2350,0.01480566452,-0.5423672261,-0.7716821562,0.3318512229
7.2400,0.01618996044,-0.5434379145,-0.7712933251,0.3309376451
7.2450,0.01758296454,-0.5444963563,-0.7709061599,0.3300276502
7.2500,0.01898558941,-0.5455434121,-0.7705197858,0.3291218507
7.2550,0.02039748776,-0.5465790734,-0.7701336425,0.3282216197
7.2600,0.02181986045,-0.5476039679,-0.7697476876,0.3273259621
7.2650,0.02325039797,-0.5486192664,-0.7693618711,0.326433195
7.2700,0.02468957495,-0.549625877,-0.7689756221,0.3255431045
7.2750,0.02613443733,-0.5506245647,-0.7685888006,0.3246549484
7.2800,0.02758509999,-0.5516149361,-0.7682018176,0.3237684233
7.2850,0.02904198015,-0.5525987725,-0.7678148314,0.3228800779
7.2900,0.03050351555,-0.5535762001,-0.7674273242,0.3219910376
7.2950,0.03196899132,-0.5545472812,-0.7670401112,0.3210993059
7.3000,0.03343611571,-0.5555122747,-0.7666525059,0.3202062993
7.3050,0.03490549675,-0.5564724075,-0.7662637737,0.3193115955
7.3100,0.03637561226,-0.5574281581,-0.7658738886,0.3184145885
7.3150,0.03784420091,-0.5583788893,-0.765483194,0.3175158456
7.3200,0.0393097941,-0.5593243543,-0.7650922515,0.3166146767
7.3250,0.04077112534,-0.5602640461,-0.7647011803,0.3157119238
7.3300,0.04222433584,-0.561199559,-0.7643092977,0.3148070169
7.3350,0.043668565,-0.56213079,-0.7639166182,0.3139003534
7.3400,0.04510173231,-0.5630568602,-0.7635236414,0.3129927395
7.3450,0.04652299749,-0.5639778771,-0.763130106,0.3120849342
7.3500,0.04793060185,-0.5648939851,-0.7627358516,0.3111775435
7.3550,0.04932292165,-0.565804541,-0.7623414215,0.3102708943
7.3600,0.05069997761,-0.566709893,-0.7619467226,0.3093648353
7.3650,0.05205901595,-0.5676111361,-0.7615505199,0.3084611202
7.3700,0.05340270767,-0.5685085389,-0.7611529828,0.3075586591
7.3750,0.05472918291,-0.5694013703,-0.7607555247,0.3066558781
7.3800,0.05603744251,-0.5702909809,-0.7603563052,0.30575528
7.3850,0.05732919551,-0.5711761228,-0.7599560269,0.3048574047
7.3900,0.05860242326,-0.5720570219,-0.7595544064,0.3039631943
7.3950,0.05985988113,-0.5729350801,-0.7591513399,0.3030700114
7.4000,0.06109956993,-0.573808558,-0.7587471324,0.3021810226
7.4050,0.06232263607,-0.5746767349,-0.7583422358,0.3012965198
7.4100,0.06352743168,-0.5755410804,-0.7579356539,0.3004168349
7.4150,0.06471385737,-0.5764011018,-0.7575292838,0.2995384294
7.4200,0.06588157453,-0.5772578228,-0.7571218193,0.2986629788
7.4250,0.06702949814,-0.5781118452,-0.7567139387,0.2977881056
7.4300,0.0681568927,-0.5789628909,-0.7563058521,0.2969142417
7.4350,0.06926483799,-0.5798110308,-0.7558973366,0.2960418337
7.4400,0.07035468981,-0.5806571471,-0.7554879175,0.2951702927
7.4450,0.07142469019,-0.5815008633,-0.7550776852,0.2943007797
7.4500,0.07247653103,-0.5823405609,-0.7546681836,0.2934323708
7.4550,0.07350981478,-0.5831765291,-0.7542590218,0.2925658405
7.4600,0.07452391763,-0.5840091945,-0.7538506316,0.2916996259
7.4650,0.07552131345,-0.584837473,-0.7534430246,0.2908354691
7.4700,0.07650256626,-0.5856618863,-0.7530357346,0.2899736104
7.4750,0.07746720326,-0.5864804959,-0.7526301302,0.2891147652
7.4800,0.07841704839,-0.5872953366,-0.7522244597,0.2882591132
7.4850,0.07935006297,-0.588104865,-0.7518201225,0.2874069217
7.4900,0.08026757318,-0.5889089478,-0.7514174615,0.2865574401
7.4950,0.08116855717,-0.5897079036,-0.7510159815,0.2857118289
7.5000,0.0820550576,-0.5905000971,-0.7506164738,0.2848710448
7.5050,0.08292775284,-0.59128616,-0.7502183256,0.2840354357
7.5100,0.08378745131,-0.5920645046,-0.7498226585,0.2832053429
7.5150,0.08463569464,-0.5928362619,-0.7494291189,0.2823791096
7.5200,0.08547312297,-0.5936008073,-0.7490376923,0.2815580976
7.5250,0.08630052671,-0.5943567706,-0.748649531,0.2807421025
7.5300,0.08712006041,-0.5951047345,-0.7482635843,0.279932239
7.5350,0.087930912,-0.5958431771,-0.7478813304,0.2791282478
7.5400,0.0887341813,-0.5965722429,-0.7475019485,0.2783318902
7.5450,0.08952798225,-0.5972927637,-0.7471257408,0.2775413884
7.5500,0.09031284415,-0.5980035937,-0.7467534348,0.2767572941
7.5550,0.09108613726,-0.5987053427,-0.7463850865,0.2759792219
7.5600,0.09184543082,-0.5993980111,-0.7460210242,0.2752073265
7.5650,0.09259047771,-0.6000806874,-0.7456621661,0.2744414439
7.5700,0.09332036076,-0.6007522061,-0.7453091847,0.2736828754
7.5750,0.09403727892,-0.6014124252,-0.7449619816,0.2729317331
7.5800,0.09473851445,-0.6020620002,-0.7446202495,0.2721886218
7.5850,0.09542510206,-0.6027004471,-0.7442834663,0.2714559683
7.5900,0.09609695212,-0.603326644,-0.743953052,0.2707326963
7.5950,0.0967543877,-0.6039409939,-0.7436282677,0.2700201174
7.6000,0.09739879141,-0.6045434648,-0.7433095265,0.2693169552
7.6050,0.09802740542,-0.6051338394,-0.7429974126,0.2686233593
7.6100,0.09864115579,-0.6057107744,-0.742692302,0.2679412709
7.6150,0.09924146329,-0.6062761084,-0.7423926238,0.2672706575
7.6200,0.09982743586,-0.6068293932,-0.7420992397,0.2666107444
7.6250,0.100399306,-0.6073703443,-0.741812261,0.265962053
7.6300,0.1009582355,-0.6078994284,-0.7415309309,0.2653254571
7.6350,0.1015015263,-0.6084161116,-0.741255722,0.2647021531
7.6400,0.102030834,-0.6089202747,-0.7409864278,0.2640926388
7.6450,0.1025449258,-0.6094127309,-0.7407231915,0.2634953797
7.6500,0.1030423299,-0.6098942946,-0.7404658916,0.2629096633
7.6550,0.103522666,-0.6103645259,-0.7402144173,0.2623372248
7.6600,0.103986256,-0.6108247094,-0.7399682416,0.2617766878
7.6650,0.1044330434,-0.6112736074,-0.7397285627,0.2612278121
7.6700,0.1048620465,-0.6117106734,-0.7394954688,0.2606922608
7.6750,0.1052716759,-0.6121372904,-0.7392678038,0.2601709557
7.6800,0.1056624401,-0.6125531931,-0.7390465986,0.2596616248
7.6850,0.1060333431,-0.6129572095,-0.7388322919,0.2591664211
7.6900,0.1063837443,-0.613350852,-0.7386245616,0.2586831814
7.6950,0.1067120675,-0.6137331346,-0.7384240017,0.2582134153
7.7000,0.1070178874,-0.6141065401,-0.7382292609,0.2577554802
7.7050,0.1073014384,-0.6144700587,-0.7380412228,0.2573093504
7.7100,0.1075624422,-0.6148231209,-0.7378606526,0.2568744993
7.7150,0.1077996701,-0.615165652,-0.7376871407,0.2564529862
7.7200,0.1080128064,-0.6154977715,-0.7375207706,0.2560446052
7.7250,0.1082017149,-0.6158189505,-0.7373619464,0.2556497001
7.7300,0.1083667557,-0.6161283892,-0.7372109996,0.2552692622
7.7350,0.1085074854,-0.6164266458,-0.7370681072,0.2549017875
7.7400,0.108624327,-0.6167129862,-0.736933232,0.2545491304
7.7450,0.108716126,-0.61698742,-0.73680713,0.254209718
7.7500,0.108782857,-0.6172503132,-0.7366892271,0.253884469
7.7550,0.1088227201,-0.6175007933,-0.7365801072,0.2535747063
7.7600,0.1088353806,-0.6177379013,-0.7364807353,0.2532802235
7.7650,0.1088195871,-0.617961732,-0.7363908776,0.2530021156
7.7700,0.1087745711,-0.6181722859,-0.7363108422,0.2527399084
7.7750,0.1087031857,-0.6183681793,-0.736241184,0.25249422
7.7800,0.1086023555,-0.6185485302,-0.7361831059,0.252265096
7.7850,0.1084733959,-0.6187135462,-0.7361355,0.2520547476
7.7900,0.1083160421,-0.6188624454,-0.7360992849,0.2518625647
7.7950,0.1081319161,-0.6189936107,-0.7360748727,0.251690644
7.8000,0.1079205559,-0.6191074293,-0.7360625573,0.2515373856
7.8050,0.1076825158,-0.6192030411,-0.7360623823,0.2514045326
7.8100,0.1074175447,-0.6192797406,-0.7360746106,0.2512931387
7.8150,0.1071260243,-0.6193363959,-0.7360996043,0.2512047294
7.8200,0.1068076141,-0.6193727368,-0.7361380015,0.2511381873
7.8250,0.1064624952,-0.619389044,-0.7361890887,0.2510947529
7.8300,0.1060921952,-0.6193835284,-0.7362536911,0.2510756722
7.8350,0.1056964819,-0.6193576944,-0.7363304683,0.2510811452
7.8400,0.105275498,-0.6193101867,-0.7364205326,0.2511110536
7.8450,0.1048312782,-0.6192400837,-0.7365240729,0.2511661043
7.8500,0.1043639218,-0.6191473121,-0.7366401268,0.2512490824
7.8550,0.1038747404,-0.6190308165,-0.7367701473,0.251357587
7.8600,0.1033637145,-0.6188905019,-0.7369132031,0.251494374
7.8650,0.1028324355,-0.6187259893,-0.7370692627,0.2516595765
7.8700,0.1022810917,-0.6185376417,-0.7372379983,0.2518529294
7.8750,0.1017095944,-0.6183242187,-0.737420181,0.2520749802
7.8800,0.1011183719,-0.6180859972,-0.7376147333,0.2523277238
7.8850,0.1005058907,-0.6178212892,-0.7378238267,0.2526092263
7.8900,0.09987339371,-0.617530697,-0.738046492,0.2529199856
7.8950,0.09921921054,-0.6172135986,-0.7382835818,0.2532593034
7.9000,0.09854263052,-0.6168688269,-0.7385353025,0.2536292714
7.9050,0.09784522585,-0.616495893,-0.7388013967,0.2540307501
7.9100,0.0971268132,-0.6160957658,-0.73908154,0.254461916
7.9150,0.09638711577,-0.6156660654,-0.7393773068,0.2549235534
7.9200,0.09562542715,-0.6152073234,-0.739687791,0.2554167159
7.9250,0.09484140407,-0.6147192575,-0.7400133693,0.2559405318
7.9300,0.09403424361,-0.6142016722,-0.740353836,0.2564957394
7.9350,0.09320476458,-0.6136551246,-0.7407088954,0.2570809059
7.9400,0.09235109899,-0.613079385,-0.7410788256,0.2576957827
7.9450,0.09147247759,-0.6124743819,-0.7414633045,0.2583410256
7.9500,0.09057075016,-0.6118393576,-0.7418623943,0.2590168481
7.9550,0.08964487689,-0.6111744859,-0.7422764348,0.2597214625
7.9600,0.08869473598,-0.6104787089,-0.7427054957,0.2604564004
7.9650,0.08771987406,-0.6097528002,-0.7431490212,0.2612207469
7.9700,0.08672003063,-0.6089975024,-0.7436067411,0.2620127725
7.9750,0.08569502661,-0.608213044,-0.744078348,0.2628320138
7.9800,0.08464364903,-0.6073998364,-0.744563464,0.2636780982
7.9850,0.08356577583,-0.6065589235,-0.7450610262,0.2645507527
7.9900,0.08246127655,-0.605690529,-0.7455707228,0.2654494646
7.9950,0.08133059237,-0.6047952205,-0.7460921439,0.2663730257
8.0000,0.08017319847,-0.6038716055,-0.7466257428,0.267322544
8.0050,0.0789873154,-0.6029210094,-0.7471709054,0.2682962889
8.0100,0.07777537024,-0.6019430662,-0.7477270736,0.2692949317
8.0150,0.07653685868,-0.6009396985,-0.7482934419,0.2703155802
8.0200,0.07527360971,-0.5999092616,-0.7488707096,0.2713584748
8.0250,0.07398567579,-0.5988530557,-0.7494572287,0.272424301
8.0300,0.07267248033,-0.5977714653,-0.7500528341,0.2735118495
8.0350,0.07133261027,-0.5966644439,-0.7506575437,0.2746205605
8.0400,0.06996595859,-0.5955318216,-0.7512718562,0.2757484583
8.0450,0.06857329774,-0.5943737962,-0.7518946644,0.2768969244
8.0500,0.06715411378,-0.5931905794,-0.7525261208,0.2780641996
8.0550,0.06570973336,-0.5919825289,-0.7531654082,0.2792503972
8.0600,0.06424090534,-0.5907501616,-0.7538116782,0.2804555339
8.0650,0.0627467273,-0.5894930034,-0.7544649637,0.2816797218
8.0700,0.06122837407,-0.5882109445,-0.7551251257,0.2829222782
8.0750,0.05968393163,-0.5869050629,-0.755791035,0.2841833683
8.0800,0.05811327435,-0.5855741979,-0.7564635482,0.2854620928
8.0850,0.05651603233,-0.5842191645,-0.7571422126,0.2867569977
8.0900,0.0548906426,-0.5828397857,-0.7578260772,0.2880701968
8.0950,0.05323744017,-0.5814350448,-0.7585159568,0.2894004266
8.1000,0.05155735658,-0.580005371,-0.759210705,0.2907485408
8.1050,0.04984896364,-0.5785512166,-0.759909303,0.2921154255
8.1100,0.04811355067,-0.5770728542,-0.7606115995,0.2934995774
8.1150,0.04635210612,-0.5755706404,-0.7613167957,0.2949010966
8.1200,0.04456570443,-0.5740434349,-0.7620245993,0.2963216883
8.1250,0.04275512146,-0.5724913996,-0.7627343375,0.2977615278
8.1300,0.04091974632,-0.5709148384,-0.7634457794,0.2992195909
8.1350,0.03906245112,-0.5693135155,-0.7641585562,0.3006957714
8.1400,0.037184684,-0.5676878226,-0.7648713666,0.3021913763
8.1450,0.03528640743,-0.5660386648,-0.7655830643,0.3037065543
8.1500,0.03336816374,-0.5643659428,-0.7662944448,0.3052383856
8.1550,0.03143325191,-0.5626700907,-0.7670035907,0.3067895232
8.1600,0.02948358428,-0.5609506927,-0.7677110284,0.3083582582
8.1650,0.02752007918,-0.5592073251,-0.7684160672,0.3099460606
8.1700,0.02554365457,-0.5574414801,-0.7691180764,0.3115508025
8.1750,0.02355515517,-0.5556535306,-0.7698164576,0.313172365
8.1800,0.02155633567,-0.5538448362,-0.7705111695,0.314807496
8.1850,0.01954754098,-0.5520159262,-0.7712006005,0.3164584406
8.1900,0.01752912044,-0.5501666382,-0.771885561,0.318122745
8.1950,0.01550255453,-0.548297373,-0.7725652939,0.3198007633
8.2000,0.01346886223,-0.5464095665,-0.773239218,0.3214907263
8.2050,0.01142740427,-0.5445033343,-0.7739080092,0.3231902329
8.2100,0.009380304152,-0.5425792546,-0.774570142,0.3249013043
8.2150,0.007326287251,-0.5406394893,-0.7752251949,0.3266208281
8.2200,0.005266370127,-0.5386825615,-0.7758741906,0.3283482962
8.2250,0.003201700612,-0.5367103384,-0.7765158926,0.3300830657
8.2300,0.001132612082,-0.5347223925,-0.7771503939,0.3318251728
8.2350,-0.0009392797921,-0.5327191673,-0.7777773369,0.3335743105
8.2400,-0.003011605783,-0.530700753,-0.7783966203,0.3353301992
8.2450,-0.005082492567,-0.5286689308,-0.7790077077,0.3370909688
8.2500,-0.007152406573,-0.5266241164,-0.7796099006,0.3388573241
8.2550,-0.009219823415,-0.5245665328,-0.7802025841,0.3406301151
8.2600,-0.0112834376,-0.5224974111,-0.7807857072,0.3424073873
8.2650,-0.01334223016,-0.5204164462,-0.7813594618,0.3441890453
8.2700,-0.0153965709,-0.518325506,-0.781922987,0.345974071
8.2750,-0.01744408129,-0.5162244538,-0.7824766892,0.3477617694
8.2800,-0.01948437634,-0.514112745,-0.7830205132,0.3495530294
8.2850,-0.02151670123,-0.5119915672,-0.7835541691,0.3513467386
8.2900,-0.02354123971,-0.5098606706,-0.784077731,0.3531430565
8.2950,-0.02555675402,-0.5077210039,-0.7845904086,0.3549424253
8.3000,-0.02756292762,-0.5055724937,-0.7850929657,0.3567432885
8.3050,-0.02955792556,-0.5034158405,-0.7855846577,0.358546463
8.3100,-0.03154431342,-0.5012521725,-0.78606546,0.360350258
8.3150,-0.03352052429,-0.4990809132,-0.7865358639,0.3621545958
8.3200,-0.03548833754,-0.4969031175,-0.7869952628,0.3639592368
8.3250,-0.03744705171,-0.4947173493,-0.7874450492,0.3657632528
8.3300,-0.03939697681,-0.4925248752,-0.787884457,0.3675666033
8.3350,-0.0413354347,-0.4903259248,-0.7883132749,0.369369801
8.3400,-0.04326425435,-0.488120471,-0.7887314323,0.3711729216
8.3450,-0.04518197403,-0.4859091289,-0.7891392556,0.3729747215
8.3500,-0.04708882767,-0.4836932634,-0.7895353238,0.3747765223
8.3550,-0.04898431351,-0.4814718369,-0.7899209351,0.3765771152
8.3600,-0.05086838546,-0.4792444816,-0.7902965934,0.3783760413
8.3650,-0.05274135405,-0.4770130495,-0.7906615775,0.380172553
8.3700,-0.05460282013,-0.4747776383,-0.7910158907,0.3819667354
8.3750,-0.05645161785,-0.472538909,-0.7913595336,0.3837581048
8.3800,-0.0582883981,-0.4702974022,-0.7916916424,0.3855478693
8.3850,-0.06011122067,-0.4680523429,-0.7920124564,0.387336952
8.3900,-0.061918602,-0.4658042567,-0.792322263,0.3891245465
8.3950,-0.06371127211,-0.4635564183,-0.7926194822,0.3909100629
8.4000,-0.06548941269,-0.461307483,-0.7929050122,0.3926934996
8.4050,-0.06725326752,-0.45905686,-0.7931799456,0.3944735368
8.4100,-0.06900347959,-0.4568066701,-0.793442648,0.3962511203
8.4150,-0.0707408226,-0.4545567738,-0.7936940496,0.3980246613
8.4200,-0.07246683121,-0.4523083624,-0.7939337532,0.3997935707
8.4250,-0.07418150457,-0.4500628424,-0.7941618869,0.4015562721
8.4300,-0.07588696974,-0.4478202455,-0.794377934,0.4033136416
8.4350,-0.07758315464,-0.4455812789,-0.794581794,0.4050653659
8.4400,-0.07927108942,-0.4433463378,-0.7947742338,0.4068095825
8.4450,-0.08095082709,-0.4411153918,-0.7949545442,0.4085479743
8.4500,-0.08262264697,-0.4388887084,-0.7951228875,0.4102801405
8.4550,-0.08428739621,-0.436665288,-0.7952797948,0.4120062003
8.4600,-0.08594656886,-0.4344468209,-0.7954251055,0.4137246048
8.4650,-0.0875986793,-0.4322341606,-0.7955586248,0.4154354057
8.4700,-0.0892438993,-0.4300259463,-0.795681112,0.4171388018
8.4750,-0.09088398072,-0.4278237572,-0.7957919761,0.4188341743
8.4800,-0.09251824127,-0.4256272181,-0.7958904177,0.4205238273
8.4850,-0.09414709426,-0.4234378094,-0.7959773992,0.4222046023
8.4900,-0.09577148218,-0.421254463,-0.7960526741,0.4238780966
8.4950,-0.09739024377,-0.4190795141,-0.7961145497,0.4255456792
8.5000,-0.09900391541,-0.4169117225,-0.7961645702,0.4272058256
8.5050,-0.1006128143,-0.4147521109,-0.7962013367,0.4288603265
8.5100,-0.1022175212,-0.4125999413,-0.7962266518,0.4305066617
8.5150,-0.1038171783,-0.4104553798,-0.7962397851,0.4321464789
8.5200,-0.105410285,-0.4083198267,-0.7962399577,0.4337804983
8.5250,-0.1069975048,-0.4061933962,-0.7962277437,0.4354076699
8.5300,-0.1085789229,-0.4040768122,-0.7962032651,0.4370273539
8.5350,-0.1101542971,-0.4019702406,-0.7961665517,0.4386396909
8.5400,-0.111724821,-0.3998741798,-0.7961177637,0.4402439221
8.5450,-0.1132900082,-0.3977874196,-0.7960566942,0.4418419203
8.5500,-0.1148497886,-0.3957103331,-0.7959846858,0.4434312103
8.5550,-0.1164032938,-0.3936435427,-0.7959014355,0.4450122913
8.5600,-0.1179505794,-0.3915857917,-0.7958073416,0.4465858301
8.5650,-0.1194914525,-0.389538637,-0.7957019127,0.4481516586
8.5700,-0.1210247784,-0.3874999926,-0.7955862681,0.4497101831
8.5750,-0.1225498171,-0.3854707834,-0.7954602434,0.4512613641
8.5800,-0.1240660042,-0.3834508729,-0.7953244285,0.452804713
8.5850,-0.1255741413,-0.3814398373,-0.7951789423,0.45434044
8.5900,-0.127071187,-0.3794378712,-0.7950243103,0.4558685791
8.5950,-0.1285597488,-0.3774420719,-0.7948617476,0.4573889761
8.6000,-0.1300393365,-0.3754550504,-0.7946904483,0.4589012611
8.6050,-0.1315109777,-0.3734754056,-0.7945116598,0.4604043946
8.6100,-0.1329737376,-0.37150367,-0.7943253833,0.4618984669
8.6150,-0.1344277692,-0.3695395334,-0.7941314823,0.4633841787
8.6200,-0.13587235,-0.3675815664,-0.7939314064,0.4648606442
8.6250,-0.137306988,-0.36563186,-0.7937244381,0.4663278357
8.6300,-0.1387313416,-0.3636887519,-0.7935115879,0.4677857058
8.6350,-0.1401456564,-0.3617509882,-0.7932935732,0.4692341891
8.6400,-0.1415478649,-0.3598193978,-0.7930703396,0.4706736017
8.6450,-0.1429379905,-0.3578928529,-0.7928427441,0.4721036113
8.6500,-0.1443147308,-0.3559696921,-0.7926115104,0.4735248994
8.6550,-0.1456781668,-0.3540506466,-0.7923770435,0.4749364508
8.6600,-0.1470298058,-0.3521362032,-0.7921382191,0.4763395558
8.6650,-0.1483694835,-0.3502253513,-0.7918961993,0.4777333034
8.6700,-0.149697492,-0.348317856,-0.7916506277,0.4791185822
8.6750,-0.151016384,-0.3464132214,-0.7914016161,0.4804949675
8.6800,-0.1523229985,-0.3445124796,-0.7911491391,0.4818629423
8.6850,-0.1536196944,-0.3426151616,-0.7908935761,0.4832216797
8.6900,-0.1549084511,-0.3407215003,-0.7906346584,0.4845710143
8.6950,-0.1561878153,-0.3388283686,-0.7903736478,0.4859117202
8.7000,-0.1574580007,-0.3369367731,-0.7901098963,0.4872442311
8.7050,-0.1587207168,-0.335048089,-0.7898428348,0.4885681206
8.7100,-0.1599743925,-0.3331604711,-0.7895731425,0.4898842178
8.7150,-0.1612204193,-0.3312737924,-0.7893012056,0.4911916711
8.7200,-0.1624585033,-0.3293868768,-0.7890268389,0.4924917944
8.7250,-0.1636899137,-0.3274988663,-0.7887497757,0.4937852732
8.7300,-0.1649133955,-0.3256100371,-0.7884704105,0.4950718003
8.7350,-0.1661305653,-0.3237199916,-0.7881882592,0.4963519622
8.7400,-0.1673420985,-0.3218271537,-0.7879032044,0.4976268138
8.7450,-0.1685477765,-0.319931231,-0.7876166992,0.4988943672
8.7500,-0.1697480065,-0.3180326916,-0.7873271152,0.5001568105
8.7550,-0.1709428313,-0.3161333412,-0.7870356918,0.5014110877
8.7600,-0.1721301071,-0.31423122,-0.7867418601,0.5026601358
8.7650,-0.1733128134,-0.3123266602,-0.7864455426,0.5039029019
8.7700,-0.1744912168,-0.3104180534,-0.7861468822,0.5051401062
8.7750,-0.1756642342,-0.3085053025,-0.7858457637,0.5063723835
8.7800,-0.1768327567,-0.3065873744,-0.7855437581,0.507597638
8.7850,-0.1779973537,-0.3046631663,-0.7852396715,0.5088181949
8.7900,-0.1791575194,-0.3027337834,-0.7849322702,0.5100354604
8.7950,-0.1803138298,-0.300797983,-0.7846237648,0.5112465589
8.8000,-0.1814664763,-0.2988573285,-0.7843124704,0.5124530847
8.8050,-0.1826165946,-0.2969115093,-0.7839989023,0.5136540238
8.8100,-0.1837653599,-0.2949601814,-0.783681976,0.5148507982
8.8150,-0.1849123756,-0.2930032564,-0.7833624105,0.5160424778
8.8200,-0.1860599226,-0.2910409145,-0.7830395694,0.5172290828
8.8250,-0.1872094024,-0.28907227,-0.7827130079,0.518411236
8.8300,-0.1883585048,-0.2870968098,-0.7823836027,0.5195886774
8.8350,-0.1895096833,-0.285115012,-0.7820506482,0.5207612634
8.8400,-0.1906620155,-0.2831270242,-0.7817138089,0.5219296936
8.8450,-0.1918164502,-0.2811326288,-0.7813734076,0.5230931967
8.8500,-0.1929724423,-0.2791324289,-0.7810289825,0.5242522791
8.8550,-0.1941316203,-0.2771255281,-0.7806810581,0.5254059774
8.8600,-0.1952947624,-0.2751134088,-0.7803280885,0.5265554505
8.8650,-0.1964622046,-0.2730955628,-0.7799708648,0.5276995981
8.8700,-0.1976341943,-0.2710719714,-0.7796087315,0.5288392358
8.8750,-0.1988123201,-0.2690422398,-0.7792409485,0.5299749794
8.8800,-0.1999948246,-0.2670080392,-0.7788675246,0.5311065395
8.8850,-0.2011793239,-0.2649671706,-0.7784890636,0.5322349632
8.8900,-0.2023663709,-0.2629182314,-0.7781064643,0.5333593401
8.8950,-0.2035539245,-0.2608641822,-0.7777179253,0.5344815309
8.9000,-0.2047415082,-0.258802669,-0.7773247004,0.5356009741
8.9050,-0.2059311332,-0.2567353247,-0.776925509,0.5367178913
8.9100,-0.2071225806,-0.2546613604,-0.7765210191,0.5378316977
8.9150,-0.2083151772,-0.2525805425,-0.7761098204,0.5389447126
8.9200,-0.2095095841,-0.2504957164,-0.775691518,0.5400558297
8.9250,-0.2107077014,-0.2484050696,-0.7752665053,0.5411645144
8.9300,-0.2119080087,-0.2463100884,-0.7748341995,0.542271426
8.9350,-0.213110821,-0.2442113628,-0.7743944203,0.5433763614
8.9400,-0.2143183519,-0.2421087128,-0.7739472292,0.5444783757
8.9450,-0.2155305319,-0.2400024632,-0.7734912624,0.5455792101
8.9500,-0.2167471849,-0.2378931486,-0.773026889,0.5466780923
8.9550,-0.2179677453,-0.2357804414,-0.7725545395,0.5477747065
8.9600,-0.2191911392,-0.2336658068,-0.7720749563,0.548867741
8.9650,-0.2204164674,-0.2315486076,-0.7715871881,0.5499591206
8.9700,-0.2216441844,-0.229428656,-0.7710920764,0.5510475089
8.9750,-0.2228734397,-0.2273061004,-0.7705891886,0.552133742
8.9800,-0.2241044697,-0.2251798619,-0.7700790689,0.5532173571
8.9850,-0.2253364678,-0.2230510319,-0.7695619909,0.5542978041
8.9900,-0.2265686428,-0.2209184915,-0.7690380323,0.5553757062
8.9950,-0.2278025412,-0.2187847768,-0.7685057398,0.5564513919
9.0000,-0.2290379304,-0.2166489094,-0.7679662696,0.5575237083
9.0050,-0.2302735356,-0.2145110707,-0.7674196537,0.5585930312
9.0100,-0.2315106571,-0.2123713984,-0.7668661086,0.5596584461
9.0150,-0.2327472282,-0.2102288458,-0.7663054517,0.5607214236
9.0200,-0.2339852668,-0.2080848456,-0.7657379617,0.5617801758
9.0250,-0.2352229224,-0.2059390688,-0.7651638985,0.5628352203
9.0300,-0.2364600072,-0.2037906385,-0.7645842079,0.5638856531
9.0350,-0.237696079,-0.2016398759,-0.763998294,0.5649323333
9.0400,-0.2389309859,-0.1994891467,-0.7634066161,0.5659738535
9.0450,-0.24016424,-0.1973381185,-0.7628080043,0.5670121281
9.0500,-0.2413971966,-0.1951874467,-0.7622028539,0.5680458288
9.0550,-0.2426297156,-0.1930363239,-0.761590554,0.5690761168
9.0600,-0.2438608616,-0.1908843785,-0.7609718396,0.5701025289
9.0650,-0.2450889819,-0.1887298311,-0.7603471704,0.57112575
9.0700,-0.2463124974,-0.1865739274,-0.7597159571,0.5721468235
9.0750,-0.2475309951,-0.1844171659,-0.7590792088,0.5731644355
9.0800,-0.2487436626,-0.1822577114,-0.7584360387,0.5741807138
9.0850,-0.2499507686,-0.1800963821,-0.7577866783,0.5751949727
9.0900,-0.251150167,-0.1779334427,-0.757132337,0.5762064803
9.0950,-0.2523437221,-0.1757683898,-0.7564715332,0.5772165439
9.1000,-0.2535327279,-0.17360117,-0.7558041127,0.5782248117
9.1050,-0.2547159677,-0.1714322586,-0.7551305934,0.5792309931
9.1100,-0.2558951826,-0.1692616359,-0.7544500873,0.5802354866
9.1150,-0.2570688479,-0.167089467,-0.753763205,0.5812381167
9.1200,-0.2582380272,-0.1649156012,-0.7530699195,0.5822384924
9.1250,-0.2593992705,-0.1627385707,-0.7523701287,0.5832386866
9.1300,-0.260554858,-0.1605580427,-0.7516639215,0.5842376486
9.1350,-0.2617020763,-0.1583749041,-0.7509524929,0.585234796
9.1400,-0.2628431752,-0.1561890014,-0.7502360246,0.5862289386
9.1450,-0.26397597,-0.1540007747,-0.7495145786,0.5872208657
9.1500,-0.2651007342,-0.1518101466,-0.7487877047,0.5882110619
9.1550,-0.2662154689,-0.14961648,-0.7480571728,0.5891983531
9.1600,-0.2673203277,-0.1474204515,-0.7473237882,0.5901815047
9.1650,-0.2684153546,-0.1452216167,-0.7465864317,0.5911620586
9.1700,-0.269500372,-0.1430232485,-0.7458451199,0.5921393055
9.1750,-0.2705752296,-0.1408248275,-0.7451008369,0.5931122624
9.1800,-0.2716414253,-0.1386269728,-0.7443521188,0.5940819991
9.1850,-0.2726999142,-0.1364308578,-0.7436002078,0.5950463081
9.1900,-0.273752216,-0.134239021,-0.7428438326,0.5960055787
9.1950,-0.274797775,-0.1320500923,-0.7420841452,0.5969590248
9.2000,-0.2758383297,-0.1298652835,-0.7413202407,0.5979067861
9.2050,-0.2768708303,-0.1276842421,-0.7405523113,0.5988501915
9.2100,-0.2778953934,-0.1255052804,-0.7397802473,0.5997897637
9.2150,-0.2789120929,-0.1233296282,-0.7390057918,0.6007231367
9.2200,-0.279919839,-0.1211562046,-0.738227853,0.6016524702
9.2250,-0.280920119,-0.118985894,-0.7374461764,0.6025772818
9.2300,-0.2819133215,-0.1168181281,-0.7366615935,0.6034965624
9.2350,-0.2829019624,-0.1146540116,-0.7358722711,0.6044112325
9.2400,-0.2838828641,-0.1124922873,-0.7350800899,0.6053207961
9.2450,-0.2848572001,-0.1103331327,-0.7342856512,0.6062240162
9.2500,-0.2858249543,-0.1081775862,-0.7334888064,0.6071209733
9.2550,-0.2867870435,-0.1060245873,-0.7326891724,0.6080119697
9.2600,-0.2877432024,-0.1038742931,-0.7318855044,0.608898669
9.2650,-0.2886945933,-0.1017283247,-0.7310795412,0.6097782254
9.2700,-0.2896412822,-0.09958649535,-0.7302708332,0.6106512652
9.2750,-0.2905822496,-0.0974498757,-0.7294600378,0.6115174006
9.2800,-0.2915181131,-0.09531792362,-0.7286473872,0.6123762474
9.2850,-0.2924479228,-0.09318997859,-0.7278332395,0.6132280293
9.2900,-0.2933729054,-0.09106919451,-0.7270175242,0.6140718685
9.2950,-0.2942928929,-0.08895435958,-0.7262006641,0.6149076439
9.3000,-0.2952094545,-0.08684640909,-0.7253815981,0.6157358332
9.3050,-0.2961219214,-0.08474468708,-0.7245604889,0.6165567643
9.3100,-0.2970303657,-0.08264962343,-0.7237378307,0.6173698681
9.3150,-0.2979355743,-0.08056308833,-0.7229123862,0.6181760787
9.3200,-0.2988365193,-0.07848399659,-0.7220850586,0.6189750925
9.3250,-0.2997337179,-0.07641285795,-0.7212556226,0.6197669727
9.3300,-0.3006267468,-0.07434980052,-0.7204232546,0.6205529796
9.3350,-0.3015158756,-0.07229391739,-0.7195886882,0.6213323475
9.3400,-0.3024000081,-0.07024450714,-0.7187513167,0.6221064934
9.3450,-0.3032826422,-0.06820121912,-0.7179109179,0.6228741017
9.3500,-0.3041610787,-0.06616481963,-0.7170673138,0.623636691
9.3550,-0.305036474,-0.06413300295,-0.7162201131,0.6243944723
9.3600,-0.3059086904,-0.06210614044,-0.7153698729,0.625146899
9.3650,-0.3067777299,-0.06008333498,-0.7145159221,0.6258948908
9.3700,-0.3076442279,-0.05806726428,-0.7136589532,0.6266371521
9.3750,-0.3085084555,-0.05605499948,-0.7127973139,0.6273757719
9.3800,-0.3093705904,-0.0540480155,-0.7119327102,0.6281086419
9.3850,-0.3102281416,-0.05204598544,-0.7110645568,0.6288377466
9.3900,-0.3110846197,-0.05004804343,-0.7101926929,0.6295616664
9.3950,-0.3119366323,-0.04805529634,-0.7093176592,0.6302814326
9.4000,-0.3127844018,-0.04606679932,-0.7084402018,0.6309962349
9.4050,-0.3136284833,-0.04408284757,-0.7075593686,0.6317069075
9.4100,-0.3144686475,-0.04210525481,-0.7066760802,0.6324124722
9.4150,-0.3153072436,-0.0401321048,-0.7057882676,0.6331142691
9.4200,-0.3161411761,-0.03816432054,-0.7048979522,0.6338115796
9.4250,-0.3169731065,-0.03620413543,-0.7040051039,0.6345030528
9.4300,-0.3178034582,-0.03425152429,-0.7031094977,0.6351888139
9.4350,-0.3186325926,-0.03230512286,-0.7022098728,0.6358702261
9.4400,-0.3194571154,-0.03036501551,-0.701307771,0.6365473491
9.4450,-0.3202801942,-0.0284315863,-0.7004021212,0.6372198291
9.4500,-0.3211005003,-0.02650490559,-0.6994944802,0.6378866912
9.4550,-0.3219181769,-0.02458745486,-0.6985836191,0.6385491927
9.4600,-0.3227347194,-0.0226784992,-0.6976690402,0.6392072409
9.4650,-0.3235491784,-0.02077934359,-0.69675211,0.6398598638
9.4700,-0.3243633048,-0.0188885428,-0.6958317586,0.640507481
9.4750,-0.3251762413,-0.01700748187,-0.6949087712,0.6411497152
9.4800,-0.3259878473,-0.01513691259,-0.6939834028,0.6417864395
9.4850,-0.3267998902,-0.01327786732,-0.6930543016,0.6424182944
9.4900,-0.3276099486,-0.01142953372,-0.6921222766,0.6430457538
9.4950,-0.3284204071,-0.009593224975,-0.6911883467,0.6436665873
9.5000,-0.3292279301,-0.007768588868,-0.6902534712,0.644281588
9.5050,-0.3300330401,-0.00595528757,-0.6893177873,0.6448904675
9.5100,-0.3308343633,-0.004154659039,-0.6883834211,0.6454917725
9.5150,-0.33163261,-0.002365881261,-0.6874498672,0.6460858261
9.5200,-0.3324273148,-0.0005882280418,-0.6865189086,0.6466711084
9.5250,-0.3332174748,0.001179733389,-0.6855909074,0.6472478895
9.5300,-0.334001955,0.002936755055,-0.6846673287,0.647815343
9.5350,-0.3347780437,0.004684327255,-0.6837493596,0.6483737593
9.5400,-0.3355480726,0.006422941389,-0.6828369262,0.6489221594
9.5450,-0.3363111926,0.008152751905,-0.6819299611,0.649461194
9.5500,-0.3370685217,0.009875116256,-0.6810298685,0.6499889321
9.5550,-0.3378197084,0.01158809605,-0.6801360157,0.650506388
9.5600,-0.3385651045,0.01329267321,-0.6792489461,0.6510129369
9.5650,-0.3393027334,0.0149914767,-0.6783694047,0.6515089113
9.5700,-0.340031701,0.01668547778,-0.6774977558,0.6519945
9.5750,-0.3407539916,0.01837430773,-0.676633704,0.6524691047
9.5800,-0.341468889,0.02005699261,-0.6757776793,0.6529328013
9.5850,-0.3421789677,0.02173284776,-0.6749267611,0.6533874077
9.5900,-0.342883283,0.02340287254,-0.6740830258,0.6538313499
9.5950,-0.343583109,0.02506652059,-0.6732440793,0.6542665561
9.6000,-0.3442801913,0.02672194337,-0.6724095179,0.6546926972
9.6050,-0.3449766301,0.02836881284,-0.6715784011,0.6551097514
9.6100,-0.3456748147,0.03000607179,-0.6707480841,0.6555193101
9.6150,-0.3463759389,0.03163303725,-0.6699182584,0.6559211743
9.6200,-0.3470808859,0.03324959697,-0.6690873286,0.6563165926
9.6250,-0.3477908267,0.03485545374,-0.6682537177,0.6567066369
9.6300,-0.3485074532,0.03645048511,-0.6674173106,0.6570905955
9.6350,-0.3492301854,0.03803423249,-0.666577482,0.6574694937
9.6400,-0.3499596936,0.03960928176,-0.6657334075,0.6578437108
9.6450,-0.3506931908,0.04117516011,-0.664885329,0.6582145482
9.6500,-0.3514308686,0.04273434807,-0.6640326489,0.6585823876
9.6550,-0.352172641,0.0442880847,-0.66317499,0.6589475921
9.6600,-0.3529187985,0.04583581079,-0.6623110695,0.6593113433
9.6650,-0.3536697408,0.04737807908,-0.6614414199,0.6596728584
9.6700,-0.3544234603,0.04891873132,-0.6605648944,0.6600340815
9.6750,-0.355180915,0.05045664572,-0.659682669,0.6603933833
9.6800,-0.355941495,0.05199324546,-0.6587930355,0.66075267
9.6850,-0.3567062865,0.05353049014,-0.6578960061,0.6611111532
9.6900,-0.35747174,0.05506893954,-0.6569925406,0.6614697035
9.6950,-0.3582391617,0.0566103545,-0.6560835951,0.661826478
9.7000,-0.3590071159,0.05815526042,-0.655168165,0.6621831559
9.7050,-0.3597741049,0.05970643095,-0.654246133,0.6625403633
9.7100,-0.3605401097,0.06126453833,-0.6533173383,0.6628981378
9.7150,-0.3613024788,0.06282874147,-0.6523832593,0.6632564746
9.7200,-0.3620641387,0.06440065388,-0.6514413325,0.663616083
9.7250,-0.3628229287,0.06598081139,-0.6504923856,0.6639771918
9.7300,-0.3635783731,0.06756911193,-0.6495347096,0.6643416612
9.7350,-0.3643343294,0.06916334332,-0.6485679623,0.6647078507
9.7400,-0.3650908499,0.07076276513,-0.6475909404,0.6650768951
